,HRV_MeanNN,HRV_SDNN,HRV_RMSSD,HRV_SDSD,HRV_CVNN,HRV_CVSD,HRV_MedianNN,HRV_MadNN,HRV_MCVNN,HRV_IQRNN,HRV_Prc20NN,HRV_Prc80NN,HRV_pNN50,HRV_pNN20,HRV_MinNN,HRV_MaxNN,HRV_HTI,HRV_TINN,ECG_P_Peaks,ECG_Q_Peaks,ECG_S_Peaks,ECG_T_Peaks,ECG_R_Peaks,ratio p/r peaks,ratio q/r peaks,ratio s/r peaks,ratio t/r peaks,arrythmia
7200-10800,852.5252525252525,25.982382013283047,25.564611921874516,26.36694994463173,0.03047696468382727,0.02998692630646418,855.5555555555555,37.06499999999983,0.04332272727272707,44.44444444444434,825.0,875.0,9.090909090909092,36.36363636363637,813.8888888888889,886.1111111111111,3.6666666666666665,39.0625,10,5,11,10,12,0.8333333333333334,0.4166666666666667,0.9166666666666666,0.8333333333333334,0
10800-14400,856.060606060606,29.313602945060367,28.327886186626593,29.577500439285604,0.0342424388384776,0.03309098209411248,858.3333333333333,32.94666666666659,0.03838446601941738,44.44444444444446,825.0,875.0,0.0,36.36363636363637,811.1111111111111,894.4444444444445,3.6666666666666665,70.3125,11,4,11,9,12,0.9166666666666666,0.3333333333333333,0.9166666666666666,0.75,0
14400-18000,844.1666666666667,24.196625392481668,24.879683041748923,26.380765481311837,0.028663327217154984,0.029472477443335345,847.2222222222222,37.065,0.04374885245901639,38.19444444444457,822.2222222222222,866.1111111111111,0.0,50.0,811.1111111111111,880.5555555555555,3.3333333333333335,15.625,10,4,10,7,11,0.9090909090909091,0.36363636363636365,0.9090909090909091,0.6363636363636364,1
21600-25200,855.0505050505052,24.683746020826163,21.87224409447725,22.13718296632386,0.028868173137174127,0.025580061020121055,866.6666666666667,28.828333333333518,0.03326346153846175,36.1111111111112,830.5555555555557,872.2222222222223,0.0,45.45454545454545,819.4444444444445,891.6666666666667,5.5,0.0,10,6,11,9,12,0.8333333333333334,0.5,0.9166666666666666,0.75,0
25200-28800,843.4343434343434,16.446355335330022,13.916638944305962,14.64310209475699,0.019499271595181705,0.016499967131572337,836.1111111111111,16.473333333333294,0.019702325581395303,27.77777777777783,827.7777777777777,855.5555555555555,0.0,9.090909090909092,825.0,872.2222222222223,2.75,0.0,9,4,11,10,12,0.75,0.3333333333333333,0.9166666666666666,0.8333333333333334,0
28800-32400,836.9444444444446,62.690724083754255,73.10711460426624,73.44203737113776,0.07490428367126295,0.08735002076845617,858.3333333333333,28.828333333333266,0.03358640776699021,29.166666666666742,833.3333333333333,868.8888888888889,10.0,30.0,666.6666666666666,880.5555555555555,3.3333333333333335,195.3125,10,6,10,11,11,0.9090909090909091,0.5454545454545454,0.9090909090909091,1.0,1
32400-36000,856.1111111111111,21.627853808379903,21.195413226406657,22.13524645904059,0.025262905162286714,0.02475778313272679,850.0,24.710000000000026,0.029070588235294147,30.555555555555657,840.0,875.5555555555555,0.0,40.0,827.7777777777777,894.4444444444445,5.0,39.0625,11,4,10,11,11,1.0,0.36363636363636365,0.9090909090909091,1.0,1
36000-39600,844.1666666666666,28.79168118310901,25.1367999268486,26.562941273668642,0.03410663121394947,0.029777058156187877,840.2777777777778,30.88749999999997,0.036758677685950376,35.416666666666515,816.1111111111111,863.3333333333333,10.0,40.0,813.8888888888889,897.2222222222223,3.3333333333333335,0.0,9,3,10,10,11,0.8181818181818182,0.2727272727272727,0.9090909090909091,0.9090909090909091,0
39600-43200,855.3030303030301,28.28575922764272,27.414288425500736,28.604967577258712,0.033071038246668204,0.03205213527162177,841.6666666666666,45.30166666666665,0.0538237623762376,43.05555555555543,836.1111111111111,883.3333333333333,9.090909090909092,36.36363636363637,811.1111111111111,894.4444444444445,2.75,31.25,12,3,11,10,12,1.0,0.25,0.9166666666666666,0.8333333333333334,1
46800-50400,844.7222222222223,24.687692629173306,24.879683041748915,26.356380236093138,0.02922581172805784,0.02945309403166593,834.7222222222223,10.295833333333352,0.012334442595673898,19.444444444444343,830.0000000000001,856.1111111111111,10.0,40.0,822.2222222222222,902.7777777777778,3.3333333333333335,0.0,10,4,10,7,11,0.9090909090909091,0.36363636363636365,0.9090909090909091,0.6363636363636364,0
50400-54000,850.2777777777777,30.187173304215932,29.86021388258726,31.118550697789036,0.03550271933850943,0.03511818685962566,854.1666666666666,45.30166666666665,0.05303609756097559,47.222222222222285,820.5555555555555,876.1111111111112,10.0,50.0,813.8888888888889,891.6666666666667,5.0,0.0,10,4,10,9,11,0.9090909090909091,0.36363636363636365,0.9090909090909091,0.8181818181818182,1
57600-61200,844.191919191919,22.133661917969867,21.11841978749801,22.191336561400355,0.026218755966246093,0.025016135913398782,838.8888888888889,20.591666666666704,0.024546357615894084,30.55555555555543,825.0,863.8888888888889,0.0,18.181818181818183,811.1111111111111,883.3333333333333,5.5,15.625,10,4,11,9,12,0.8333333333333334,0.3333333333333333,0.9166666666666666,0.75,0
61200-64800,852.7777777777779,20.286020648339477,21.950499242832763,22.685185185185173,0.023788167535512085,0.02573999911211659,850.0,28.82833333333318,0.033915686274509624,38.19444444444446,832.7777777777778,872.2222222222223,0.0,40.0,830.5555555555557,880.5555555555555,3.3333333333333335,0.0,9,5,10,10,11,0.8181818181818182,0.45454545454545453,0.9090909090909091,0.9090909090909091,0
64800-68400,857.5,22.83304045950765,18.679852779474086,19.680010469289147,0.02662745243091271,0.021784084874022256,859.7222222222222,26.769166666666646,0.03113699515347332,31.944444444444343,837.2222222222223,876.6666666666666,0.0,20.0,825.0,894.4444444444445,5.0,39.0625,11,4,10,10,11,1.0,0.36363636363636365,0.9090909090909091,0.9090909090909091,0
68400-72000,844.1919191919192,22.513869026468228,18.530088977953273,19.530234027073632,0.026669135909307265,0.021950090443522273,833.3333333333334,8.236666666666816,0.009884000000000179,23.61111111111086,830.5555555555557,858.3333333333333,0.0,18.181818181818183,813.8888888888889,891.6666666666667,2.75,23.4375,10,5,11,11,12,0.8333333333333334,0.4166666666666667,0.9166666666666666,0.9166666666666666,0
75600-79200,854.1666666666667,27.939344943730774,28.538953717448955,29.921164133438,0.03270947700729456,0.03341145801067194,859.7222222222222,28.82833333333335,0.03353214862681747,37.499999999999886,828.8888888888889,870.0,0.0,50.0,819.4444444444445,908.3333333333334,5.0,15.625,11,4,10,11,11,1.0,0.36363636363636365,0.9090909090909091,1.0,0
82800-86400,851.7676767676767,26.62243806930928,27.27319490807462,28.017484253021593,0.03125551578845679,0.03201952322442203,855.5555555555555,37.06499999999983,0.04332272727272707,40.277777777777715,827.7777777777777,875.0,9.090909090909092,36.36363636363637,813.8888888888889,894.4444444444445,5.5,0.0,11,6,11,8,12,0.9166666666666666,0.5,0.9166666666666666,0.6666666666666666,0
86400-90000,855.0,29.098244258546615,28.343014564840672,29.411815137534422,0.034033034220522354,0.03314972463724055,852.7777777777778,32.94666666666659,0.03863452768729632,38.19444444444446,830.5555555555555,881.1111111111111,0.0,40.0,813.8888888888889,897.2222222222223,5.0,0.0,10,3,10,9,11,0.9090909090909091,0.2727272727272727,0.9090909090909091,0.8181818181818182,0
90000-93600,844.7222222222223,25.169180644609536,24.07407407407407,25.50081361837113,0.029795807405654167,0.028499397128137666,841.6666666666666,26.769166666666646,0.03180495049504948,36.111111111111086,824.4444444444445,867.2222222222223,0.0,40.0,811.1111111111111,883.3333333333333,3.3333333333333335,15.625,10,4,10,8,11,0.9090909090909091,0.36363636363636365,0.9090909090909091,0.7272727272727273,0
93600-97200,850.0000000000002,27.467401804058,27.793205592228947,29.067291022856033,0.032314590357715285,0.03269788893203405,848.6111111111111,28.828333333333266,0.033971194762684044,32.63888888888903,826.1111111111111,865.5555555555557,0.0,40.0,819.4444444444445,900.0,5.0,0.0,10,4,10,10,11,0.9090909090909091,0.36363636363636365,0.9090909090909091,0.9090909090909091,0
97200-100800,856.1111111111111,24.385450698343018,19.466477816322822,20.38614708917038,0.02848397875212033,0.02273826091458863,861.1111111111111,16.473333333333464,0.019130322580645315,24.305555555555657,841.6666666666666,872.2222222222223,0.0,30.0,813.8888888888889,891.6666666666667,3.3333333333333335,54.6875,9,5,10,11,11,0.8181818181818182,0.45454545454545453,0.9090909090909091,1.0,0
100800-104400,843.939393939394,16.6118627579004,16.52719420071506,17.411347071915834,0.019683715296614477,0.019583389896718022,841.6666666666666,12.355000000000055,0.014679207920792145,18.055555555555543,833.3333333333334,858.3333333333333,0.0,18.181818181818183,816.6666666666666,872.2222222222223,3.6666666666666665,39.0625,11,5,11,10,12,0.9166666666666666,0.4166666666666667,0.9166666666666666,0.8333333333333334,0
104400-108000,854.1666666666666,22.652092264305683,22.755936532304645,23.561130833332356,0.02651952265089446,0.026641096428063976,862.5,26.769166666666646,0.031036714975845387,33.33333333333337,829.4444444444446,868.8888888888889,0.0,30.0,822.2222222222222,886.1111111111111,2.5,39.0625,11,3,10,10,11,1.0,0.2727272727272727,0.9090909090909091,0.9090909090909091,0
108000-111600,856.9444444444443,22.84054885841483,21.195413226406668,22.241503980489473,0.02665347678777744,0.024733707492727394,855.5555555555554,26.769166666666646,0.031288636363636345,31.25,839.4444444444445,878.3333333333333,0.0,40.0,822.2222222222222,894.4444444444445,5.0,39.0625,11,4,10,9,11,1.0,0.36363636363636365,0.9090909090909091,0.8181818181818182,1
111600-115200,846.1111111111111,27.535984686858345,27.700509817873332,29.291326778024416,0.03254417100219634,0.03273861961403283,841.6666666666666,22.650833333333324,0.0269118811881188,25.0,823.8888888888889,860.5555555555555,10.0,60.0,813.8888888888889,902.7777777777778,3.3333333333333335,23.4375,11,5,10,10,11,1.0,0.45454545454545453,0.9090909090909091,0.9090909090909091,1
115200-118800,854.2929292929293,27.396371424475788,28.040424962877523,29.38119225221919,0.0320690602544854,0.032822962711497185,844.4444444444445,32.94666666666676,0.039015789473684316,41.66666666666663,836.1111111111111,883.3333333333333,9.090909090909092,36.36363636363637,811.1111111111111,894.4444444444445,3.6666666666666665,39.0625,10,4,11,9,12,0.8333333333333334,0.3333333333333333,0.9166666666666666,0.75,1
118800-122400,853.6111111111111,23.861238663623798,25.374425196379114,26.46188733785785,0.027953289680782843,0.029725978101843416,861.1111111111111,18.532500000000084,0.021521612903225906,36.1111111111112,827.2222222222222,872.7777777777778,0.0,40.0,811.1111111111111,880.5555555555555,5.0,15.625,11,5,10,8,11,1.0,0.45454545454545453,0.9090909090909091,0.7272727272727273,0
122400-126000,845.0000000000002,25.350762901700165,26.008466491089155,27.53754140363529,0.030000902842248708,0.0307792502853126,838.8888888888889,14.41416666666659,0.017182450331125736,18.05555555555543,828.8888888888889,854.4444444444445,10.0,50.0,819.4444444444445,902.7777777777778,5.0,39.0625,9,5,10,8,11,0.8181818181818182,0.45454545454545453,0.9090909090909091,0.7272727272727273,0
126000-129600,849.4444444444443,28.139618590711702,26.995147661320846,28.263500239994823,0.0331270853258869,0.03177976833903043,852.7777777777778,39.12416666666679,0.045878501628664636,37.5,823.3333333333334,868.8888888888889,0.0,50.0,813.8888888888889,891.6666666666667,5.0,0.0,10,4,10,10,11,0.9090909090909091,0.36363636363636365,0.9090909090909091,0.9090909090909091,1
129600-133200,856.060606060606,26.89767366306701,25.30675994206751,26.358819775789776,0.03142029135862695,0.02956187887037975,858.3333333333333,28.82833333333318,0.033586407766990116,33.33333333333326,838.8888888888889,875.0,9.090909090909092,36.36363636363637,813.8888888888889,902.7777777777778,5.5,0.0,11,4,11,10,12,0.9166666666666666,0.3333333333333333,0.9166666666666666,0.8333333333333334,0
136800-140400,850.5555555555554,18.830701953905447,20.4543722540505,21.205523130738513,0.022139296875917577,0.02404824954754468,845.8333333333333,26.769166666666646,0.03164827586206894,31.25,834.4444444444445,870.5555555555555,0.0,40.0,827.7777777777777,875.0,3.3333333333333335,23.4375,10,3,10,10,11,0.9090909090909091,0.2727272727272727,0.9090909090909091,0.9090909090909091,1
144000-147600,842.9292929292928,22.304141935406236,17.69948035785997,18.647697592850502,0.02646027623253706,0.0209975860446751,833.3333333333334,12.355000000000055,0.014826000000000067,26.388888888888914,827.7777777777777,858.3333333333333,0.0,27.27272727272727,816.6666666666666,888.8888888888888,3.6666666666666665,0.0,9,4,11,10,12,0.75,0.3333333333333333,0.9166666666666666,0.8333333333333334,0
147600-151200,854.4444444444446,24.009885938315445,24.879683041748848,25.72258219090569,0.028099996546793106,0.029117964548210612,863.8888888888889,22.65083333333324,0.026219614147909857,44.44444444444423,830.5555555555557,877.7777777777777,0.0,30.0,816.6666666666666,880.5555555555555,3.3333333333333335,15.625,10,5,10,10,11,0.9090909090909091,0.45454545454545453,0.9090909090909091,0.9090909090909091,0
151200-154800,855.5555555555557,28.508896885816057,28.94166594090332,30.400842887744467,0.033322087269135645,0.03382792122962725,862.5,26.76916666666673,0.031036714975845484,42.3611111111112,826.6666666666666,872.2222222222223,0.0,50.0,819.4444444444445,908.3333333333334,3.3333333333333335,54.6875,11,5,10,9,11,1.0,0.45454545454545453,0.9090909090909091,0.8181818181818182,0
158400-162000,851.5151515151515,26.36295908414453,26.64350846284844,27.335993045342878,0.030960058710917067,0.0312895295115302,850.0,32.94666666666676,0.0387607843137256,40.277777777777715,827.7777777777777,875.0,9.090909090909092,27.27272727272727,813.8888888888889,897.2222222222223,5.5,0.0,12,2,11,10,12,1.0,0.16666666666666666,0.9166666666666666,0.8333333333333334,0
162000-165600,855.2777777777779,27.945481413153264,26.627414526941518,27.92015978391596,0.0326741581966066,0.031133060180899463,855.5555555555554,32.94666666666667,0.03850909090909092,39.58333333333337,832.7777777777777,882.2222222222222,0.0,40.0,811.1111111111111,891.6666666666667,5.0,46.875,11,3,10,9,11,1.0,0.2727272727272727,0.9090909090909091,0.8181818181818182,1
165600-169200,845.8333333333333,24.26031945661833,24.56759103966963,26.04963869747259,0.028682151081716255,0.02904542783015129,847.2222222222222,35.00583333333329,0.04131836065573766,39.58333333333337,822.2222222222222,866.6666666666666,0.0,50.0,813.8888888888889,880.5555555555555,3.3333333333333335,0.0,10,4,10,8,11,0.9090909090909091,0.36363636363636365,0.9090909090909091,0.7272727272727273,1
169200-172800,850.0,24.07407407407407,24.706785303937654,25.676712266411197,0.028322440087145965,0.029066806239926652,845.8333333333333,22.65083333333324,0.026779310344827476,26.388888888888914,832.2222222222223,867.7777777777778,0.0,30.0,819.4444444444445,894.4444444444445,3.3333333333333335,31.25,10,3,10,9,11,0.9090909090909091,0.2727272727272727,0.9090909090909091,0.8181818181818182,0
172800-176400,856.060606060606,24.683746020826135,23.488242396232966,24.25325059881771,0.02883411039600929,0.027437592887634973,861.1111111111112,32.94666666666676,0.03826064516129042,37.5,833.3333333333334,877.7777777777777,0.0,36.36363636363637,819.4444444444445,886.1111111111111,5.5,0.0,10,5,11,11,12,0.8333333333333334,0.4166666666666667,0.9166666666666666,0.9166666666666666,0
180000-183600,844.7222222222223,52.9067624638221,83.42073605758692,88.26216171538154,0.06263214234454441,0.09875522847987928,844.4444444444445,41.18333333333332,0.04876973684210525,49.30555555555566,825.0,880.5555555555555,40.0,60.0,727.7777777777777,927.7777777777778,5.0,117.1875,10,5,10,9,11,0.9090909090909091,0.45454545454545453,0.9090909090909091,0.8181818181818182,1
187200-190800,845.7070707070707,23.810064928915917,23.05722885494127,24.26031945661835,0.028154033179607952,0.02726384779503357,838.8888888888889,24.71000000000011,0.02945562913907298,29.166666666666742,822.2222222222222,861.1111111111112,0.0,36.36363636363637,816.6666666666666,888.8888888888888,3.6666666666666665,23.4375,12,4,11,11,12,1.0,0.3333333333333333,0.9166666666666666,0.9166666666666666,0
190800-194400,854.7979797979798,25.248484525200766,24.3749010760892,25.147029921137683,0.02953737037512409,0.028515393873356935,847.2222222222222,20.591666666666534,0.02430491803278673,34.72222222222217,838.8888888888889,880.5555555555555,0.0,36.36363636363637,808.3333333333334,888.8888888888888,5.5,46.875,12,5,11,9,12,1.0,0.4166666666666667,0.9166666666666666,0.75,1
194400-198000,853.888888888889,21.722782664615057,22.849930887505646,23.966998343601418,0.025439823549972086,0.026759840987319556,862.5,20.59166666666662,0.023874396135265645,38.888888888888914,830.5555555555557,872.7777777777778,0.0,30.0,819.4444444444445,877.7777777777777,5.0,23.4375,10,3,10,11,11,0.9090909090909091,0.2727272727272727,0.9090909090909091,1.0,0
201600-205200,851.767676767677,27.701916613527874,25.804942583319107,26.625804598312996,0.032522854962813624,0.030295752336182518,863.8888888888889,24.71000000000011,0.02860321543408373,43.05555555555554,822.2222222222222,872.2222222222223,0.0,63.63636363636363,808.3333333333334,897.2222222222223,3.6666666666666665,62.5,11,5,11,9,12,0.9166666666666666,0.4166666666666667,0.9166666666666666,0.75,0
205200-208800,854.2929292929294,25.195643006025733,26.571008985706964,27.884055948367507,0.029492978511339606,0.03110292509116156,855.5555555555555,32.94666666666659,0.03850909090909082,41.66666666666663,827.7777777777777,875.0,9.090909090909092,36.36363636363637,819.4444444444445,891.6666666666667,5.5,0.0,11,5,11,10,12,0.9166666666666666,0.4166666666666667,0.9166666666666666,0.8333333333333334,0
208800-212400,843.0555555555554,26.907668679111836,24.845199749997658,26.31976000657758,0.03191683928988554,0.029470418154857195,836.1111111111111,26.769166666666646,0.032016279069767416,31.25,821.1111111111111,858.3333333333334,0.0,30.0,813.8888888888889,900.0,5.0,0.0,10,4,10,11,11,0.9090909090909091,0.36363636363636365,0.9090909090909091,1.0,0
216000-219600,856.9444444444446,25.76837046310325,21.296296296296315,22.1836084272425,0.03007005953554998,0.024851431658562958,863.8888888888889,30.88749999999997,0.035754019292604466,42.3611111111112,827.7777777777777,876.1111111111111,0.0,20.0,825.0,900.0,3.3333333333333335,0.0,11,2,10,11,11,1.0,0.18181818181818182,0.9090909090909091,1.0,0
219600-223200,827.2727272727273,66.02489922461562,112.47084670271086,118.55323565596727,0.07981031774404086,0.1359537707395406,825.0,16.473333333333294,0.01996767676767672,43.05555555555566,816.6666666666666,866.6666666666667,27.27272727272727,45.45454545454545,652.7777777777778,916.6666666666666,3.6666666666666665,179.6875,11,3,11,7,12,0.9166666666666666,0.25,0.9166666666666666,0.5833333333333334,1
223200-226800,854.2929292929294,23.119510905548665,21.264065787782926,21.635780454718372,0.027062744069161305,0.02489083668921678,850.0,24.709999999999944,0.029070588235294053,27.777777777777715,838.8888888888889,869.4444444444445,0.0,27.27272727272727,811.1111111111111,888.8888888888888,3.6666666666666665,39.0625,12,5,11,10,12,1.0,0.4166666666666667,0.9166666666666666,0.8333333333333334,1
226800-230400,854.4444444444446,25.53273269662839,27.31089111806043,28.602719613228693,0.0298822619336353,0.03196333160761298,856.9444444444445,35.00583333333329,0.040849594813614214,38.19444444444434,829.4444444444446,875.0,10.0,40.0,822.2222222222222,894.4444444444445,5.0,0.0,11,3,10,10,11,1.0,0.2727272727272727,0.9090909090909091,0.9090909090909091,0
230400-234000,845.8333333333334,25.230419617479118,23.11108143397904,24.493322345206106,0.02982906752805413,0.027323446030320046,838.8888888888889,12.355000000000055,0.01472781456953649,26.388888888888914,832.2222222222223,867.2222222222223,0.0,50.0,808.3333333333334,897.2222222222223,2.5,31.25,11,3,10,10,11,1.0,0.2727272727272727,0.9090909090909091,0.9090909090909091,0
234000-237600,850.5555555555554,27.398647248655216,27.824035557993945,28.8489455579915,0.03221264862676643,0.03271277857896088,854.1666666666666,35.00583333333329,0.0409824390243902,38.8888888888888,823.3333333333334,872.7777777777778,10.0,50.0,813.8888888888889,891.6666666666667,3.3333333333333335,39.0625,11,3,10,10,11,1.0,0.2727272727272727,0.9090909090909091,0.9090909090909091,1
237600-241200,855.5555555555554,27.41428842550074,27.414288425500736,28.682788078595003,0.03204267478305282,0.03204267478305281,855.5555555555555,32.94666666666659,0.03850909090909082,47.22222222222217,827.7777777777777,877.7777777777777,0.0,45.45454545454545,816.6666666666666,897.2222222222223,5.5,0.0,12,5,11,10,12,1.0,0.4166666666666667,0.9166666666666666,0.8333333333333334,0
241200-244800,845.8333333333334,25.467171369398255,26.336041950607193,27.931672461108054,0.03010897107712109,0.031136207232244955,850.0,37.065,0.043605882352941175,35.416666666666515,818.8888888888889,862.2222222222222,0.0,60.0,816.6666666666666,888.8888888888888,3.3333333333333335,0.0,11,4,10,11,11,1.0,0.36363636363636365,0.9090909090909091,1.0,1
244800-248400,852.2222222222223,25.112913734053095,26.254531256958956,27.46740180405803,0.029467565007363472,0.03080714228326344,845.8333333333333,24.70999999999986,0.029213793103448113,34.0277777777776,830.0000000000001,871.6666666666666,10.0,30.0,827.7777777777777,902.7777777777778,5.0,0.0,10,6,10,8,11,0.9090909090909091,0.5454545454545454,0.9090909090909091,0.7272727272727273,0
248400-252000,857.7777777777777,29.681667266885693,26.56294127366861,27.850983782768573,0.03460297997434861,0.03096715951593491,862.5,35.00583333333338,0.040586473429951746,45.1388888888888,828.8888888888889,882.7777777777778,0.0,30.0,811.1111111111111,897.2222222222223,5.0,54.6875,11,5,10,11,11,1.0,0.45454545454545453,0.9090909090909091,1.0,0
252000-255600,844.191919191919,22.786398959759115,24.31150720782342,25.19471497261759,0.02699196526492555,0.02879855475410732,841.6666666666666,32.94666666666659,0.03914455445544545,40.27777777777783,822.2222222222222,866.6666666666667,9.090909090909092,27.27272727272727,811.1111111111111,877.7777777777777,3.6666666666666665,31.25,10,4,11,10,12,0.8333333333333334,0.3333333333333333,0.9166666666666666,0.8333333333333334,0
259200-262800,854.4444444444446,23.09994982150026,24.00274332743653,25.247404082288867,0.02703505180669731,0.028091637184256012,854.1666666666667,28.82833333333335,0.03375024390243904,36.80555555555554,834.4444444444445,875.5555555555555,0.0,30.0,822.2222222222222,888.8888888888888,5.0,0.0,10,6,10,11,11,0.9090909090909091,0.5454545454545454,0.9090909090909091,1.0,0
262800-266400,845.5555555555554,22.34533796888648,22.812379619916534,24.087425072830694,0.02642681231537166,0.026979161179927574,837.5,26.76916666666673,0.03196318407960207,38.888888888888914,826.6666666666666,870.0,10.0,20.0,816.6666666666666,875.0,3.3333333333333335,0.0,11,5,10,10,11,1.0,0.45454545454545453,0.9090909090909091,0.9090909090909091,0
266400-270000,855.050505050505,25.87416670746785,23.422448870925347,23.579317737494172,0.030260395794912198,0.027393058927603183,855.5555555555555,28.82833333333335,0.03369545454545456,41.66666666666674,827.7777777777777,875.0,0.0,45.45454545454545,822.2222222222222,897.2222222222223,3.6666666666666665,0.0,12,3,11,10,12,1.0,0.25,0.9166666666666666,0.8333333333333334,0
270000-273600,832.5757575757576,83.07451389992117,102.33764618731709,107.75844614715537,0.09978012588525563,0.1229169180775783,861.1111111111112,32.94666666666676,0.03826064516129042,38.888888888888914,827.7777777777777,875.0,27.27272727272727,45.45454545454545,597.2222222222222,888.8888888888888,5.5,265.625,12,6,11,10,12,1.0,0.5,0.9166666666666666,0.8333333333333334,1
273600-277200,845.5555555555557,28.784235892926596,27.854831400909887,29.528182813151833,0.03404180328992632,0.03294263897610893,837.5,22.650833333333406,0.027045771144278693,30.555555555555543,822.2222222222222,862.2222222222222,10.0,50.0,816.6666666666666,908.3333333333334,5.0,0.0,11,4,10,9,11,1.0,0.36363636363636365,0.9090909090909091,0.8181818181818182,0
277200-280800,852.5,28.99937324898627,29.52818281315182,30.820957364987493,0.03401686011611293,0.03463716459020741,852.7777777777777,37.065,0.04346384364820847,48.6111111111112,827.2222222222222,878.3333333333333,10.0,40.0,811.1111111111111,897.2222222222223,3.3333333333333335,15.625,11,4,10,9,11,1.0,0.36363636363636365,0.9090909090909091,0.8181818181818182,0
288000-291600,846.7171717171715,25.422910035196356,26.614532371118838,28.029721634803177,0.030025268040375065,0.031432612045818854,841.6666666666666,28.82833333333335,0.03425148514851487,38.888888888888914,822.2222222222222,869.4444444444445,0.0,45.45454545454545,816.6666666666666,888.8888888888888,5.5,0.0,12,5,11,11,12,1.0,0.4166666666666667,0.9166666666666666,0.9166666666666666,0
291600-295200,856.8181818181816,25.56049578951105,22.012903062398866,23.018153508622355,0.029831878375026166,0.025691451850014597,863.8888888888889,24.709999999999944,0.028603215434083534,30.555555555555543,830.5555555555557,869.4444444444445,0.0,36.36363636363637,819.4444444444445,902.7777777777778,5.5,70.3125,11,4,11,11,12,0.9166666666666666,0.3333333333333333,0.9166666666666666,0.9166666666666666,0
295200-298800,821.9696969696971,66.10241008865428,88.6759602481187,93.45019506387345,0.08041952195117386,0.10788227421890936,830.5555555555557,20.59166666666687,0.02479264214046847,33.333333333333485,816.6666666666666,861.1111111111112,18.181818181818183,45.45454545454545,633.3333333333333,877.7777777777777,5.5,210.9375,12,5,11,8,12,1.0,0.4166666666666667,0.9166666666666666,0.6666666666666666,1
298800-302400,854.4444444444446,24.5396574421888,24.776089185666006,25.272859377696612,0.02872001521192447,0.028996723364238496,852.7777777777777,22.650833333333406,0.026561237785016373,28.472222222222285,835.5555555555555,870.0,0.0,40.0,819.4444444444445,900.0,5.0,23.4375,11,3,10,11,11,1.0,0.2727272727272727,0.9090909090909091,1.0,0
302400-306000,832.2222222222223,80.90282745190018,100.83244056333679,106.93642746926913,0.09721301028933266,0.12116047597730721,855.5555555555555,20.591666666666704,0.024068181818181864,25.694444444444457,833.3333333333333,872.2222222222222,20.0,50.0,613.8888888888889,894.4444444444445,5.0,257.8125,11,4,10,10,11,1.0,0.36363636363636365,0.9090909090909091,0.9090909090909091,1
306000-309600,845.0,27.398647248655227,23.01815350862232,24.379297306817755,0.03242443461379317,0.027240418353399194,834.7222222222222,12.354999999999972,0.01480133111480862,31.250000000000114,827.2222222222222,870.0,0.0,30.0,816.6666666666666,897.2222222222223,3.3333333333333335,0.0,11,3,10,10,11,1.0,0.2727272727272727,0.9090909090909091,0.9090909090909091,0
309600-313200,852.5,25.169180644609543,25.187908349510078,25.90111246425808,0.02952396556552439,0.029545933547812406,861.1111111111111,20.591666666666704,0.023912903225806494,39.58333333333337,826.1111111111111,875.0,0.0,20.0,811.1111111111111,883.3333333333333,5.0,54.6875,11,4,10,10,11,1.0,0.36363636363636365,0.9090909090909091,0.9090909090909091,0
313200-316800,854.2929292929293,26.039015016515194,27.708246310083346,29.028922241010314,0.03048019493508725,0.03243412810757613,847.2222222222222,32.94666666666659,0.03888786885245892,43.05555555555566,827.7777777777777,880.5555555555555,9.090909090909092,36.36363636363637,822.2222222222222,900.0,3.6666666666666665,0.0,12,5,11,10,12,1.0,0.4166666666666667,0.9166666666666666,0.8333333333333334,0
316800-320400,822.9797979797979,75.15509590144308,60.46374283428759,58.7973898994242,0.09132070566729505,0.07346929169186218,847.2222222222222,37.065,0.04374885245901639,40.27777777777783,816.6666666666666,866.6666666666667,9.090909090909092,72.72727272727273,613.8888888888889,894.4444444444445,5.5,257.8125,12,3,11,9,12,1.0,0.25,0.9166666666666666,0.75,1
320400-324000,853.3333333333333,24.769167523515144,24.619881111682123,25.764211255512116,0.02902636819161931,0.02885142317775249,848.6111111111111,26.769166666666646,0.03154468085106381,31.249999999999886,835.5555555555555,876.1111111111111,10.0,30.0,822.2222222222222,897.2222222222223,5.0,0.0,11,3,10,10,11,1.0,0.2727272727272727,0.9090909090909091,0.9090909090909091,0
324000-327600,832.2222222222223,79.00487040255877,90.65093817822624,95.94844580502883,0.09493242104446313,0.10892636096182058,856.9444444444445,41.18333333333324,0.04805834683954608,60.41666666666674,808.3333333333334,882.2222222222222,40.0,60.0,627.7777777777777,897.2222222222223,5.0,242.1875,10,3,9,7,11,0.9090909090909091,0.2727272727272727,0.8181818181818182,0.6363636363636364,1
327600-331200,845.0,24.9416328256787,25.843121735097878,27.3148148148148,0.029516725237489584,0.03058357601786731,844.4444444444443,26.76916666666673,0.0317003289473685,33.33333333333337,825.5555555555555,866.6666666666666,0.0,40.0,808.3333333333334,880.5555555555555,5.0,54.6875,11,3,10,9,11,1.0,0.2727272727272727,0.9090909090909091,0.8181818181818182,1
331200-334800,845.8333333333334,27.4439821023684,29.000851413640405,30.7443661405259,0.032446087214622735,0.03428672088312166,836.1111111111111,22.650833333333324,0.027090697674418594,32.6388888888888,825.0,863.3333333333333,0.0,50.0,816.6666666666666,897.2222222222223,2.5,0.0,11,4,10,10,11,1.0,0.36363636363636365,0.9090909090909091,0.9090909090909091,0
334800-338400,853.6111111111111,27.96388274180206,29.411815137534393,30.273671711614437,0.03275951118466886,0.03445575479828305,854.1666666666666,41.18333333333332,0.04821463414634145,49.30555555555566,823.8888888888889,882.2222222222222,10.0,40.0,816.6666666666666,888.8888888888888,5.0,0.0,11,3,10,11,11,1.0,0.2727272727272727,0.9090909090909091,1.0,0
338400-342000,842.7777777777779,22.03625893428671,17.37191022156828,18.320702719823522,0.026147176059140454,0.02061268187134008,838.8888888888889,30.88749999999997,0.036819536423841025,34.02777777777783,825.5555555555555,865.0,0.0,30.0,811.1111111111111,872.2222222222223,5.0,31.25,11,4,10,9,11,1.0,0.36363636363636365,0.9090909090909091,0.8181818181818182,1
342000-345600,854.2929292929293,22.985624746906765,21.53449715923814,21.486669233096862,0.026906022464602657,0.02520739247726368,861.1111111111112,16.473333333333294,0.019130322580645114,34.722222222222285,833.3333333333334,869.4444444444445,0.0,36.36363636363637,822.2222222222222,894.4444444444445,3.6666666666666665,46.875,12,4,11,9,12,1.0,0.3333333333333333,0.9166666666666666,0.75,0
349200-352800,828.0555555555554,59.683809064702615,68.13581812772306,72.2326084649556,0.0720770589174537,0.0822841144782969,836.1111111111111,30.887500000000056,0.03694186046511635,33.33333333333337,815.5555555555555,866.6666666666667,30.0,50.0,686.1111111111111,888.8888888888888,3.3333333333333335,140.625,11,4,10,8,11,1.0,0.36363636363636365,0.9090909090909091,0.7272727272727273,1
356400-360000,855.2777777777777,24.12565698800512,25.42505595878883,26.839876001177274,0.02820797829061982,0.029727249578317568,861.1111111111112,28.82833333333318,0.03347806451612885,37.5,837.2222222222223,878.3333333333333,0.0,40.0,811.1111111111111,880.5555555555555,3.3333333333333335,0.0,11,4,10,11,11,1.0,0.36363636363636365,0.9090909090909091,1.0,0
367200-370800,832.2222222222223,69.06935740027731,62.55313242242421,60.67464787187362,0.08299388739686192,0.0751639775436339,850.0,49.419999999999966,0.058141176470588196,62.5,813.3333333333334,881.1111111111111,20.0,60.0,655.5555555555555,894.4444444444445,5.0,164.0625,11,5,10,8,11,1.0,0.45454545454545453,0.9090909090909091,0.7272727272727273,1
370800-374400,842.7777777777777,26.456216904432424,24.672060360137475,26.094853094522147,0.03139168782332127,0.029274692582892194,836.1111111111111,20.59166666666662,0.024627906976744128,26.3888888888888,823.8888888888889,862.7777777777777,10.0,30.0,808.3333333333334,891.6666666666667,3.3333333333333335,31.25,8,4,10,10,11,0.7272727272727273,0.36363636363636365,0.9090909090909091,0.9090909090909091,0
378000-381600,857.070707070707,24.449609188084295,22.170077710261033,22.952880104149163,0.028526945310787807,0.025867268041435975,855.5555555555555,37.06499999999983,0.04332272727272707,41.66666666666663,830.5555555555557,880.5555555555555,0.0,27.27272727272727,825.0,891.6666666666667,5.5,0.0,12,4,11,9,12,1.0,0.3333333333333333,0.9166666666666666,0.75,0
381600-385200,823.7373737373738,54.664572514705405,83.05509104292247,87.49877522168477,0.06636165148934194,0.10082714915081942,830.5555555555557,24.709999999999773,0.029751170568561598,30.555555555555543,819.4444444444445,852.7777777777777,18.181818181818183,54.54545454545454,672.2222222222223,875.0,3.6666666666666665,140.625,11,5,11,8,12,0.9166666666666666,0.4166666666666667,0.9166666666666666,0.6666666666666666,1
385200-388800,856.3888888888889,23.131475477157583,22.49066259535391,23.11571802374059,0.027010480609071456,0.02626220737699451,859.7222222222222,20.591666666666704,0.02395153473344108,24.305555555555543,841.6666666666667,872.7777777777778,0.0,20.0,813.8888888888889,894.4444444444445,5.0,31.25,11,3,10,9,11,1.0,0.2727272727272727,0.9090909090909091,0.8181818181818182,0
388800-392400,831.6666666666666,57.42532575796834,92.82378544334918,98.40005234644576,0.06904848788533267,0.11161176606414731,837.5,16.47333333333338,0.019669651741293585,29.166666666666742,827.7777777777777,861.1111111111112,30.0,40.0,680.5555555555555,900.0,5.0,140.625,11,5,10,7,11,1.0,0.45454545454545453,0.9090909090909091,0.6363636363636364,1
392400-396000,845.5555555555557,24.9210000085593,20.76635323333872,21.965141044956418,0.02947293036491901,0.02455941906702345,837.5,14.414166666666675,0.01721094527363185,26.388888888888914,833.3333333333333,869.4444444444445,0.0,50.0,811.1111111111111,894.4444444444445,2.0,31.25,11,4,10,10,11,1.0,0.36363636363636365,0.9090909090909091,0.9090909090909091,0
396000-399600,829.4444444444446,62.01906870795398,89.41779374450267,94.7310918695854,0.074771817598337,0.10780443987950757,834.7222222222223,37.065,0.04440399334442595,52.777777777777715,813.8888888888889,872.2222222222222,20.0,50.0,672.2222222222223,888.8888888888888,3.3333333333333335,140.625,9,3,10,9,11,0.8181818181818182,0.2727272727272727,0.9090909090909091,0.8181818181818182,1
399600-403200,856.1111111111111,28.920922410711956,29.368058383617985,30.9770314042965,0.033781739350604495,0.03430402666483606,859.7222222222222,30.88749999999997,0.03592730210016152,40.27777777777794,826.6666666666666,875.0,0.0,60.0,813.8888888888889,902.7777777777778,5.0,0.0,9,4,10,8,11,0.8181818181818182,0.36363636363636365,0.9090909090909091,0.7272727272727273,0
406800-410400,824.4949494949495,78.09279639304032,112.79282877125758,118.8233925969878,0.09471591844301368,0.13680232831062175,838.8888888888889,37.065,0.044183443708609264,37.5,825.0,866.6666666666667,18.181818181818183,36.36363636363637,597.2222222222222,877.7777777777777,5.5,250.0,10,4,10,8,12,0.8333333333333334,0.3333333333333333,0.8333333333333334,0.6666666666666666,1
410400-414000,831.6666666666666,65.44927563965722,80.4010864670089,85.15498659569197,0.0786965238152191,0.09667465306654377,850.0,41.18333333333332,0.04845098039215685,63.19444444444446,802.7777777777777,876.1111111111111,20.0,30.0,672.2222222222223,897.2222222222223,5.0,203.125,10,5,9,7,11,0.9090909090909091,0.45454545454545453,0.8181818181818182,0.6363636363636364,1
414000-417600,819.949494949495,61.247552002203534,93.05762850095749,98.0874200665337,0.07469673727401477,0.11349190294542397,830.5555555555557,16.473333333333464,0.019834113712374736,20.833333333333485,819.4444444444445,844.4444444444445,18.181818181818183,27.27272727272727,644.4444444444445,877.7777777777777,5.5,218.75,11,5,10,10,12,0.9166666666666666,0.4166666666666667,0.8333333333333334,0.8333333333333334,1
417600-421200,826.1111111111111,69.14379362987587,83.84104595992537,88.82496737141102,0.08369793445445634,0.1014888249683024,851.3888888888889,30.887500000000056,0.03627895595432307,37.499999999999886,815.5555555555555,859.4444444444443,30.0,70.0,644.4444444444445,894.4444444444445,3.3333333333333335,218.75,10,5,9,10,11,0.9090909090909091,0.45454545454545453,0.8181818181818182,0.9090909090909091,1
421200-424800,835.5555555555554,47.98405084819818,68.58730281178786,72.72940386499072,0.05742772043002443,0.08208586772687379,841.6666666666666,24.709999999999944,0.029358415841584093,26.388888888888914,831.6666666666667,863.8888888888889,20.0,40.0,708.3333333333334,875.0,5.0,132.8125,11,5,10,8,11,1.0,0.45454545454545453,0.9090909090909091,0.7272727272727273,1
424800-428400,820.2777777777777,73.97041357899799,95.59484549700736,101.38043259171293,0.09017727358089833,0.11653960168954504,830.5555555555555,26.769166666666646,0.03223043478260867,38.888888888888914,822.2222222222222,869.4444444444445,20.0,40.0,619.4444444444445,875.0,3.3333333333333335,210.9375,11,6,9,8,11,1.0,0.5454545454545454,0.8181818181818182,0.7272727272727273,1
428400-432000,834.4444444444446,70.54316018268298,110.02945733521308,116.69973076444445,0.08453907345461341,0.1318595360874724,852.7777777777778,37.06499999999991,0.043463843648208364,47.22222222222217,825.0,876.1111111111111,20.0,40.0,644.4444444444445,883.3333333333333,5.0,195.3125,10,6,10,11,11,0.9090909090909091,0.5454545454545454,0.9090909090909091,1.0,1
432000-435600,842.7777777777779,84.4594690987278,130.40114325367537,138.27255221787505,0.10021558627403428,0.15472779028122322,859.7222222222222,32.94666666666667,0.038322455573505665,38.19444444444434,839.4444444444445,887.2222222222222,30.0,70.0,616.6666666666667,922.2222222222223,5.0,250.0,10,6,10,10,11,0.9090909090909091,0.5454545454545454,0.9090909090909091,0.9090909090909091,1
435600-439200,844.9494949494948,24.050428688274675,22.83867199010494,24.066950513014397,0.028463747042907273,0.027029629731265867,841.6666666666666,20.591666666666704,0.02446534653465351,22.22222222222217,825.0,855.5555555555555,0.0,36.36363636363637,813.8888888888889,888.8888888888888,3.6666666666666665,23.4375,11,5,11,10,12,0.9166666666666666,0.4166666666666667,0.9166666666666666,0.8333333333333334,0
439200-442800,853.7878787878788,25.708261368310527,23.992025424099065,24.85210023610486,0.03011082964167693,0.028100686388474506,847.2222222222222,24.709999999999773,0.029165901639343995,44.44444444444446,833.3333333333334,880.5555555555555,0.0,36.36363636363637,808.3333333333334,883.3333333333333,5.5,23.4375,12,5,11,11,12,1.0,0.4166666666666667,0.9166666666666666,0.9166666666666666,0
446400-450000,844.4444444444446,28.267291708284734,27.38925825509083,29.004546495698325,0.03347442439138981,0.03243464793366019,830.5555555555555,14.414166666666675,0.01735484949832777,43.05555555555566,822.2222222222222,872.7777777777778,0.0,50.0,819.4444444444445,900.0,2.5,0.0,11,5,10,9,11,1.0,0.45454545454545453,0.9090909090909091,0.8181818181818182,0
450000-453600,850.0,28.53895371744897,27.83943773772762,28.93425924444398,0.03357523966758702,0.03275227969144426,851.3888888888889,37.065,0.0435347471451876,47.222222222222285,822.2222222222222,873.8888888888889,10.0,60.0,805.5555555555555,888.8888888888888,5.0,23.4375,11,4,10,9,11,1.0,0.36363636363636365,0.9090909090909091,0.8181818181818182,1
453600-457200,842.929292929293,62.68631041070167,104.36092996760664,109.94020384962256,0.07436722265619491,0.12380745436540512,855.5555555555555,37.065,0.04332272727272727,50.0,816.6666666666666,880.5555555555555,36.36363636363637,54.54545454545454,677.7777777777778,916.6666666666666,5.5,140.625,11,6,11,10,12,0.9166666666666666,0.5,0.9166666666666666,0.8333333333333334,1
457200-460800,846.2121212121212,21.273959886397176,19.681099537687054,20.613032754584264,0.025140221172823878,0.023257879489477985,844.4444444444445,16.473333333333294,0.019507894736842057,25.0,833.3333333333334,861.1111111111112,0.0,27.27272727272727,811.1111111111111,886.1111111111111,5.5,31.25,11,4,11,10,12,0.9166666666666666,0.3333333333333333,0.9166666666666666,0.8333333333333334,0
460800-464400,852.7777777777777,19.85889869400667,22.718229900713496,23.36472755730654,0.023287307914796097,0.026640269590413223,845.8333333333333,24.70999999999986,0.029213793103448113,29.861111111111086,837.7777777777778,870.5555555555555,0.0,30.0,825.0,883.3333333333333,5.0,31.25,11,5,10,9,11,1.0,0.45454545454545453,0.9090909090909091,0.8181818181818182,1
464400-468000,860.2777777777777,25.05309861759488,20.807597272448337,21.87224409447722,0.029122103656229116,0.024187068188832424,865.2777777777778,28.828333333333266,0.03331685393258419,38.8888888888888,835.0,878.8888888888888,0.0,30.0,825.0,900.0,5.0,39.0625,11,4,10,11,11,1.0,0.36363636363636365,0.9090909090909091,1.0,0
468000-471600,843.4343434343435,25.254040358588558,21.659542988464327,22.559173826431167,0.02994191611377565,0.025680176716861895,847.2222222222222,32.94666666666659,0.03888786885245892,40.27777777777783,816.6666666666666,863.8888888888889,0.0,27.27272727272727,813.8888888888889,877.7777777777777,3.6666666666666665,0.0,11,5,11,10,12,0.9166666666666666,0.4166666666666667,0.9166666666666666,0.8333333333333334,0
471600-475200,856.9444444444446,21.446731151667567,20.475318877311125,21.154925294066445,0.025026979625932977,0.023893402903831455,856.9444444444445,16.47333333333338,0.01922333873581853,18.75,845.5555555555555,871.1111111111111,0.0,30.0,822.2222222222222,891.6666666666667,3.3333333333333335,23.4375,11,3,10,11,11,1.0,0.2727272727272727,0.9090909090909091,1.0,0
475200-478800,855.8333333333334,23.695383377688515,23.75139877477901,24.883990093290173,0.02768691339165162,0.027752364683286086,850.0,28.82833333333335,0.033915686274509825,36.111111111111086,837.7777777777778,877.7777777777777,0.0,30.0,819.4444444444445,894.4444444444445,5.0,39.0625,11,5,10,10,11,1.0,0.45454545454545453,0.9090909090909091,0.9090909090909091,1
478800-482400,844.1666666666666,24.37314236176997,20.243713989884665,21.220678956233026,0.028872429253824248,0.023980707589201972,838.8888888888889,18.532500000000084,0.022091721854304736,30.555555555555543,827.2222222222222,867.2222222222223,0.0,20.0,805.5555555555555,880.5555555555555,5.0,15.625,11,4,10,8,11,1.0,0.36363636363636365,0.9090909090909091,0.7272727272727273,0
482400-486000,852.2727272727273,22.96730707252946,24.61117381481855,25.74173992198757,0.026948306965101237,0.028877110609387097,861.1111111111112,20.59166666666687,0.023912903225806685,30.555555555555657,836.1111111111111,872.2222222222223,0.0,36.36363636363637,813.8888888888889,880.5555555555555,3.6666666666666665,46.875,12,4,11,10,12,1.0,0.3333333333333333,0.9166666666666666,0.8333333333333334,1
489600-493200,843.6111111111111,26.93314641584489,24.776089185666024,26.20550314460168,0.031926021434653146,0.029369088267500062,838.8888888888889,30.887500000000056,0.03681953642384113,34.72222222222217,820.0,867.7777777777778,0.0,50.0,811.1111111111111,886.1111111111111,5.0,0.0,10,5,10,9,11,0.9090909090909091,0.45454545454545453,0.9090909090909091,0.8181818181818182,1
493200-496800,850.8333333333334,25.695070062453674,26.336041950607193,27.498597046143498,0.030199886459299125,0.030953232459087786,854.1666666666667,28.82833333333335,0.03375024390243904,39.58333333333337,826.1111111111111,870.5555555555555,10.0,30.0,813.8888888888889,888.8888888888888,5.0,0.0,10,5,10,9,11,0.9090909090909091,0.45454545454545453,0.9090909090909091,0.8181818181818182,0
496800-500400,830.3030303030304,70.77017386171599,100.27354561706336,105.60630683768726,0.08523415100133677,0.12076740895485732,844.4444444444445,28.82833333333335,0.034138815789473705,44.44444444444434,825.0,883.3333333333333,36.36363636363637,54.54545454545454,633.3333333333333,888.8888888888888,3.6666666666666665,0.0,10,6,10,9,12,0.8333333333333334,0.5,0.8333333333333334,0.75,1
500400-504000,827.2727272727273,62.765709039258844,72.88689868556625,76.76199566225546,0.075870637300203,0.088105042367168,844.4444444444445,24.71000000000011,0.029261842105263287,34.722222222222285,827.7777777777777,872.2222222222223,27.27272727272727,45.45454545454545,666.6666666666666,877.7777777777777,5.5,187.5,12,4,10,10,12,1.0,0.3333333333333333,0.8333333333333334,0.8333333333333334,1
504000-507600,842.6767676767678,48.020583409371774,71.1837736399921,74.67637080531534,0.05698576874471448,0.0844734023417347,844.4444444444445,20.591666666666534,0.024384868421052475,36.11111111111086,830.5555555555557,877.7777777777777,18.181818181818183,45.45454545454545,727.7777777777777,913.8888888888889,3.6666666666666665,125.0,11,6,10,12,12,0.9166666666666666,0.5,0.8333333333333334,1.0,1
507600-511200,816.4141414141413,74.15630957078602,102.60119966569354,107.54660520355505,0.09083173086925848,0.12567298195983498,836.1111111111111,41.18333333333324,0.049255813953488256,51.388888888888914,808.3333333333334,869.4444444444445,27.27272727272727,45.45454545454545,633.3333333333333,877.7777777777777,5.5,218.75,10,5,11,10,12,0.8333333333333334,0.4166666666666667,0.9166666666666666,0.8333333333333334,1
511200-514800,764.3939393939395,102.89646436758188,155.2104306345994,163.51154508850158,0.13461182652646983,0.2030503155972955,800.0,78.24833333333324,0.09781041666666654,170.83333333333326,650.0,850.0,54.54545454545454,72.72727272727273,586.1111111111111,866.6666666666667,5.5,265.625,12,5,11,7,12,1.0,0.4166666666666667,0.9166666666666666,0.5833333333333334,0
514800-518400,851.7676767676767,24.697950859442606,23.223949962309387,23.535645557260175,0.028996111889532383,0.027265592010300974,852.7777777777777,28.82833333333318,0.03380521172638419,37.499999999999886,830.5555555555557,869.4444444444445,0.0,27.27272727272727,813.8888888888889,888.8888888888888,5.5,0.0,12,6,11,10,12,1.0,0.5,0.9166666666666666,0.8333333333333334,0
518400-522000,854.4444444444446,24.045567167599167,24.515189434951346,25.39975319323186,0.0281417561129249,0.028691379052608854,852.7777777777778,30.88749999999997,0.03621986970684035,39.58333333333337,832.7777777777778,876.1111111111111,0.0,40.0,827.7777777777777,891.6666666666667,3.3333333333333335,0.0,11,7,10,10,11,1.0,0.6363636363636364,0.9090909090909091,0.9090909090909091,0
522000-525600,842.2222222222223,23.45354103553712,22.471594628725157,23.814483610391985,0.027847212311323758,0.026681312883710607,845.8333333333333,24.70999999999986,0.029213793103448113,25.694444444444457,826.1111111111111,858.3333333333334,0.0,20.0,800.0,877.7777777777777,5.0,54.6875,10,6,10,9,11,0.9090909090909091,0.5454545454545454,0.9090909090909091,0.8181818181818182,1
529200-532800,854.2929292929292,25.68096151844366,24.501196745777715,25.15384760593727,0.03006107230654357,0.028680088416576932,858.3333333333333,28.82833333333335,0.03358640776699032,40.27777777777783,825.0,877.7777777777777,0.0,27.27272727272727,813.8888888888889,888.8888888888888,5.5,0.0,10,6,11,11,12,0.8333333333333334,0.5,0.9166666666666666,0.9166666666666666,0
532800-536400,845.7070707070706,26.09821301896723,26.730248274932023,28.15180288164452,0.0308596367736967,0.031606982134586695,841.6666666666666,24.709999999999944,0.029358415841584093,31.944444444444457,825.0,861.1111111111112,0.0,45.45454545454545,813.8888888888889,902.7777777777778,5.5,0.0,12,6,11,11,12,1.0,0.5,0.9166666666666666,0.9166666666666666,0
536400-540000,852.5,29.584746097374047,30.443115227358494,31.5494908100015,0.034703514483723226,0.035710399093675654,850.0,43.24249999999994,0.05087352941176464,48.61111111111097,828.3333333333334,881.1111111111111,10.0,60.0,808.3333333333334,891.6666666666667,5.0,23.4375,11,4,10,11,11,1.0,0.36363636363636365,0.9090909090909091,1.0,1
543600-547200,845.5555555555557,28.903130392780234,24.72412948670126,26.20550314460166,0.034182414393564,0.029240100575599382,833.3333333333334,26.769166666666646,0.03212299999999997,35.41666666666663,823.8888888888889,868.8888888888889,0.0,40.0,811.1111111111111,894.4444444444445,3.3333333333333335,23.4375,11,4,10,8,11,1.0,0.36363636363636365,0.9090909090909091,0.7272727272727273,0
547200-550800,850.8333333333333,24.21787536032939,23.552032114772032,24.35290801821741,0.028463712470514466,0.027681134708840784,850.0,32.94666666666667,0.038760784313725496,38.888888888888914,825.0,872.2222222222222,0.0,30.0,816.6666666666666,883.3333333333333,5.0,0.0,11,4,10,11,11,1.0,0.36363636363636365,0.9090909090909091,1.0,0
550800-554400,832.8282828282828,80.2659370527373,96.22504486493766,97.94703364153996,0.0963775350906124,0.11554007812769956,850.0,28.82833333333335,0.033915686274509825,34.722222222222285,825.0,869.4444444444445,9.090909090909092,45.45454545454545,600.0,897.2222222222223,3.6666666666666665,250.0,12,6,11,10,12,1.0,0.5,0.9166666666666666,0.8333333333333334,1
554400-558000,843.6868686868688,25.9418541738982,25.030845169041815,26.326273992571796,0.030748201894234318,0.02966840672535336,836.1111111111111,20.591666666666704,0.024627906976744232,33.33333333333337,827.7777777777777,872.2222222222223,9.090909090909092,36.36363636363637,808.3333333333334,891.6666666666667,5.5,15.625,9,4,11,12,12,0.75,0.3333333333333333,0.9166666666666666,1.0,0
561600-565200,857.3232323232322,24.977543224751546,24.611173814818557,25.460437585206172,0.02913433613255262,0.028706995082969512,852.7777777777777,32.94666666666676,0.03863452768729653,36.111111111111086,838.8888888888889,877.7777777777777,9.090909090909092,27.27272727272727,825.0,900.0,5.5,0.0,11,5,11,10,12,0.9166666666666666,0.4166666666666667,0.9166666666666666,0.8333333333333334,0
565200-568800,818.1818181818181,67.07471921187066,102.24335530343136,107.7341772570132,0.08198021237006414,0.1249641009264161,825.0,12.355000000000055,0.014975757575757642,30.555555555555657,819.4444444444445,855.5555555555555,18.181818181818183,54.54545454545454,625.0,869.4444444444445,2.75,195.3125,11,4,11,10,12,0.9166666666666666,0.3333333333333333,0.9166666666666666,0.8333333333333334,1
568800-572400,822.5,84.64452012611315,114.56439237389601,121.38638158836682,0.10291127067004638,0.13928801504425048,843.0555555555555,32.94666666666676,0.03908006589785843,38.19444444444446,819.4444444444445,868.3333333333334,20.0,70.0,591.6666666666666,888.8888888888888,10.0,0.0,9,4,9,10,11,0.8181818181818182,0.36363636363636365,0.8181818181818182,0.9090909090909091,1
572400-576000,854.1666666666666,26.490221297999934,28.160937640269534,29.723520220878743,0.031012942007414557,0.03296890260324238,855.5555555555554,28.82833333333335,0.03369545454545457,35.41666666666663,832.7777777777778,873.8888888888889,10.0,50.0,811.1111111111111,900.0,5.0,31.25,10,5,10,11,11,0.9090909090909091,0.45454545454545453,0.9090909090909091,1.0,1
579600-583200,853.7878787878788,26.56440831264876,24.673797768002718,25.121447124402334,0.03111359269981931,0.028899213002452163,855.5555555555555,28.82833333333335,0.03369545454545456,40.27777777777783,822.2222222222222,875.0,0.0,36.36363636363637,811.1111111111111,886.1111111111111,3.6666666666666665,46.875,10,4,11,11,12,0.8333333333333334,0.3333333333333333,0.9166666666666666,0.9166666666666666,0
583200-586800,854.4444444444446,28.6049675772587,29.030398901094216,30.49587325069342,0.03347785542201928,0.03397575944211286,850.0,32.94666666666659,0.0387607843137254,43.05555555555554,829.4444444444446,882.2222222222222,0.0,50.0,811.1111111111111,897.2222222222223,5.0,54.6875,9,5,10,10,11,0.8181818181818182,0.45454545454545453,0.9090909090909091,0.9090909090909091,1
586800-590400,846.6666666666666,25.919311325505486,24.19839693587405,25.5637735042195,0.030613359833274196,0.02858078378252841,836.1111111111111,16.47333333333338,0.019702325581395404,38.88888888888903,827.7777777777777,874.4444444444445,0.0,40.0,816.6666666666666,888.8888888888888,3.3333333333333335,0.0,10,3,10,10,11,0.9090909090909091,0.2727272727272727,0.9090909090909091,0.9090909090909091,0
590400-594000,851.388888888889,26.71581119676577,27.232298462690295,28.463752127665586,0.031379093085923904,0.03198573392028876,843.0555555555555,32.94666666666667,0.039080065897858327,39.58333333333326,828.8888888888889,873.8888888888889,10.0,40.0,819.4444444444445,897.2222222222223,5.0,31.25,8,4,10,10,11,0.7272727272727273,0.36363636363636365,0.9090909090909091,0.9090909090909091,0
594000-597600,856.060606060606,25.17893317131094,25.030845169041783,26.280642184602634,0.029412559102770304,0.029239571347907216,861.1111111111112,24.71000000000011,0.028695483870967868,25.0,838.8888888888889,866.6666666666667,0.0,54.54545454545454,813.8888888888889,900.0,2.75,46.875,11,4,11,11,12,0.9166666666666666,0.3333333333333333,0.9166666666666666,0.9166666666666666,1
601200-604800,849.1666666666666,26.741471724901736,27.715980642769985,29.133579115837595,0.03149142892039459,0.0326390351043415,847.2222222222222,28.828333333333266,0.03402688524590156,30.555555555555543,822.2222222222222,862.7777777777778,10.0,40.0,822.2222222222222,894.4444444444445,3.3333333333333335,0.0,9,3,10,10,11,0.8181818181818182,0.2727272727272727,0.9090909090909091,0.9090909090909091,0
604800-608400,856.9444444444446,23.832477178210667,17.954369842282706,18.75999961977298,0.027810994438106446,0.020951614726812878,862.5,18.5325,0.02148695652173913,29.166666666666742,837.7777777777777,875.0,0.0,20.0,819.4444444444445,894.4444444444445,3.3333333333333335,46.875,11,4,10,11,11,1.0,0.36363636363636365,0.9090909090909091,1.0,0
608400-612000,843.939393939394,16.188424734928024,14.513722752903517,15.228596484628307,0.01918197544892728,0.017197588899311167,844.4444444444445,20.591666666666534,0.024384868421052475,24.999999999999886,827.7777777777777,855.5555555555555,0.0,9.090909090909092,822.2222222222222,872.2222222222223,3.6666666666666665,0.0,10,3,11,11,12,0.8333333333333334,0.25,0.9166666666666666,0.9166666666666666,0
615600-619200,830.5555555555554,76.48731033299121,110.20813642074404,116.16625484809302,0.09209174488253125,0.13269207060691593,841.6666666666666,28.82833333333335,0.03425148514851487,31.944444444444457,825.0,863.8888888888889,18.181818181818183,54.54545454545454,611.1111111111112,894.4444444444445,3.6666666666666665,234.375,8,3,11,8,12,0.6666666666666666,0.25,0.9166666666666666,0.6666666666666666,1
619200-622800,844.1666666666666,27.945481413153228,25.17088373901514,26.679684322636845,0.033104222799391785,0.029817433846809644,837.5,26.769166666666646,0.03196318407960196,34.027777777777715,819.4444444444445,862.2222222222222,0.0,40.0,811.1111111111111,888.8888888888888,5.0,0.0,10,5,10,9,11,0.9090909090909091,0.45454545454545453,0.9090909090909091,0.8181818181818182,0
622800-626400,823.4848484848485,72.0763873378257,108.13371923025628,113.86103242582794,0.0875260637405059,0.13131233613977764,825.0,45.30166666666665,0.05491111111111109,41.66666666666674,816.6666666666666,863.8888888888889,18.181818181818183,63.63636363636363,619.4444444444445,886.1111111111111,3.6666666666666665,203.125,11,5,11,9,12,0.9166666666666666,0.4166666666666667,0.9166666666666666,0.75,1
626400-630000,829.2929292929293,76.16749367777409,109.45995377982518,115.30808020589086,0.09184630784530615,0.13199190528870514,850.0,32.94666666666676,0.0387607843137256,41.66666666666674,827.7777777777777,869.4444444444445,18.181818181818183,36.36363636363637,611.1111111111112,888.8888888888888,3.6666666666666665,257.8125,9,3,10,10,12,0.75,0.25,0.8333333333333334,0.8333333333333334,1
630000-633600,828.5353535353535,74.48476218650225,104.30546308621435,109.94137357766026,0.0898993167505483,0.12589138488918283,841.6666666666666,20.591666666666704,0.02446534653465351,22.222222222222285,822.2222222222222,855.5555555555555,18.181818181818183,54.54545454545454,616.6666666666667,905.5555555555555,3.6666666666666665,242.1875,10,6,10,10,12,0.8333333333333334,0.5,0.8333333333333334,0.8333333333333334,1
633600-637200,829.7979797979798,62.138968473238045,95.97614158261638,101.12535512204484,0.07488445379002516,0.11566205741544762,836.1111111111111,12.355000000000055,0.014776744186046579,27.77777777777783,827.7777777777777,869.4444444444445,36.36363636363637,63.63636363636363,661.1111111111111,891.6666666666667,3.6666666666666665,179.6875,9,4,11,10,12,0.75,0.3333333333333333,0.9166666666666666,0.8333333333333334,1
637200-640800,855.050505050505,24.994387697762914,24.736263178770162,25.794973511058533,0.029231475275588052,0.028929593085626065,861.1111111111112,20.591666666666534,0.023912903225806293,31.944444444444343,830.5555555555557,875.0,0.0,45.45454545454545,808.3333333333334,883.3333333333333,5.5,54.6875,8,4,11,10,12,0.6666666666666666,0.3333333333333333,0.9166666666666666,0.8333333333333334,1
640800-644400,844.4444444444443,25.52601620757447,25.693401713910387,27.244101814452772,0.03022817708791714,0.03042639676647283,838.8888888888889,16.473333333333294,0.019637086092715184,19.444444444444343,825.0,853.3333333333333,10.0,50.0,819.4444444444445,900.0,3.3333333333333335,31.25,9,3,10,11,11,0.8181818181818182,0.2727272727272727,0.9090909090909091,1.0,0
644400-648000,797.2222222222223,106.8921228432008,146.37597455158388,154.07585469056554,0.13408071158032153,0.18360749421104597,830.5555555555557,53.53833333333329,0.06446086956521734,69.44444444444446,777.7777777777778,866.6666666666667,45.45454545454545,72.72727272727273,561.1111111111111,891.6666666666667,5.5,257.8125,9,2,11,9,12,0.75,0.16666666666666666,0.9166666666666666,0.75,1
