,HRV_MeanNN,HRV_SDNN,HRV_RMSSD,HRV_SDSD,HRV_CVNN,HRV_CVSD,HRV_MedianNN,HRV_MadNN,HRV_MCVNN,HRV_IQRNN,HRV_Prc20NN,HRV_Prc80NN,HRV_pNN50,HRV_pNN20,HRV_MinNN,HRV_MaxNN,HRV_HTI,HRV_TINN,ECG_P_Peaks,ECG_Q_Peaks,ECG_S_Peaks,ECG_T_Peaks,ECG_R_Peaks,ratio p/r peaks,ratio q/r peaks,ratio s/r peaks,ratio t/r peaks,arrythmia
3600-7200,819.1919191919192,26.365619724922787,30.00771505734758,30.772239551636822,0.03218491187136074,0.03663087288134908,822.2222222222222,37.06499999999983,0.045079054054053845,30.555555555555657,794.4444444444443,830.5555555555557,0.0,54.54545454545454,786.1111111111111,869.4444444444445,3.6666666666666665,46.875,12,11,11,12,12,1.0,0.9166666666666666,0.9166666666666666,1.0,1
7200-10800,808.0808080808081,27.39893171338603,30.36557098482698,30.694130214580575,0.033906177995315215,0.03757739409372339,805.5555555555555,24.709999999999944,0.03067448275862062,33.33333333333326,788.8888888888889,827.7777777777777,9.090909090909092,45.45454545454545,772.2222222222223,858.3333333333333,5.5,15.625,12,11,11,12,12,1.0,0.9166666666666666,0.9166666666666666,1.0,0
14400-18000,817.1717171717172,20.25372172087335,18.839805508681295,19.54559229919816,0.024785147717756015,0.023054891784418396,825.0,20.591666666666704,0.024959595959596004,26.388888888888914,802.7777777777778,833.3333333333334,0.0,36.36363636363637,780.5555555555555,841.6666666666666,3.6666666666666665,54.6875,12,11,11,11,12,1.0,0.9166666666666666,0.9166666666666666,0.9166666666666666,1
18000-21600,807.070707070707,26.039015016515165,27.680384818562466,29.14093515158558,0.03226361059618275,0.034297347897843354,797.2222222222223,20.591666666666704,0.02582926829268297,33.33333333333326,786.1111111111111,822.2222222222222,9.090909090909092,36.36363636363637,780.5555555555555,855.5555555555555,3.6666666666666665,0.0,12,11,11,11,12,1.0,0.9166666666666666,0.9166666666666666,0.9166666666666666,0
21600-25200,804.2929292929293,23.483762329613178,23.5210701444628,24.499447097705637,0.02919802160918938,0.029244407463759087,805.5555555555555,32.94666666666659,0.04089931034482749,36.111111111111086,780.5555555555555,825.0,0.0,54.54545454545454,775.0,841.6666666666666,3.6666666666666665,0.0,12,11,11,9,12,1.0,0.9166666666666666,0.9166666666666666,0.75,1
25200-28800,818.4343434343435,21.846572437632577,23.207331749117152,24.462675580783177,0.0266931276930037,0.02835576480299411,825.0,8.236666666666816,0.009983838383838565,25.000000000000114,791.6666666666666,830.5555555555557,0.0,36.36363636363637,783.3333333333334,855.5555555555555,3.6666666666666665,46.875,12,11,11,10,12,1.0,0.9166666666666666,0.9166666666666666,0.8333333333333334,0
28800-32400,810.6060606060607,24.932568993848104,22.17007771026099,22.83304045950765,0.030757935581195786,0.027350002408920097,811.1111111111111,24.71000000000011,0.030464383561643972,25.000000000000114,794.4444444444443,825.0,0.0,18.181818181818183,777.7777777777778,858.3333333333333,5.5,15.625,12,11,11,11,12,1.0,0.9166666666666666,0.9166666666666666,0.9166666666666666,0
32400-36000,792.8240740740739,63.447733968628334,58.453459764787425,56.59383316989538,0.08002750678670788,0.0737281594697465,805.5555555555557,26.76916666666648,0.033230689655172174,28.47222222222217,783.8888888888889,826.1111111111111,8.333333333333332,41.66666666666667,605.5555555555555,852.7777777777777,4.0,195.3125,13,12,12,12,13,1.0,0.9230769230769231,0.9230769230769231,0.9230769230769231,1
36000-39600,817.6767676767678,23.807118685641786,25.169180644609575,26.529030091311967,0.02911556207385468,0.03078133272163493,819.4444444444445,24.709999999999944,0.03015457627118637,33.333333333333485,791.6666666666666,830.5555555555557,0.0,36.36363636363637,786.1111111111111,863.8888888888889,5.5,0.0,12,11,11,11,12,1.0,0.9166666666666666,0.9166666666666666,0.9166666666666666,0
43200-46800,796.9696969696969,24.16681179568637,23.602939762497776,24.76916752351512,0.030323376017401153,0.02961585597575767,797.2222222222223,24.71000000000011,0.03099512195121965,29.16666666666663,777.7777777777778,813.8888888888889,0.0,27.27272727272727,761.1111111111111,844.4444444444445,3.6666666666666665,23.4375,12,11,11,11,12,1.0,0.9166666666666666,0.9166666666666666,0.9166666666666666,0
50400-54000,795.7070707070707,17.671716450010226,17.033010796395416,17.86821134530212,0.022208821689000475,0.02140613226078256,797.2222222222223,16.473333333333464,0.020663414634146504,26.388888888888914,775.0,808.3333333333334,0.0,27.27272727272727,772.2222222222223,819.4444444444445,3.6666666666666665,39.0625,12,11,11,10,12,1.0,0.9166666666666666,0.9166666666666666,0.8333333333333334,0
54000-57600,786.3636363636361,23.089150405378717,25.276251480171855,26.482128974213154,0.029361925371001844,0.03214320997478503,783.3333333333334,16.473333333333294,0.021029787234042502,18.055555555555657,772.2222222222223,800.0,0.0,36.36363636363637,752.7777777777777,833.3333333333334,3.6666666666666665,31.25,12,11,11,11,12,1.0,0.9166666666666666,0.9166666666666666,0.9166666666666666,1
57600-61200,809.3434343434343,24.032922611451884,22.395160411940402,23.57749967837293,0.02969434431867378,0.027670775423177536,811.1111111111111,24.709999999999944,0.030464383561643767,27.777777777777715,800.0,827.7777777777777,0.0,36.36363636363637,769.4444444444445,838.8888888888889,3.6666666666666665,31.25,12,11,11,11,12,1.0,0.9166666666666666,0.9166666666666666,0.9166666666666666,1
61200-64800,805.5555555555555,26.117020607873695,27.568657279554476,29.023014849365723,0.032421129030463895,0.034223160760826245,800.0,16.473333333333294,0.020591666666666616,34.72222222222217,788.8888888888889,833.3333333333334,9.090909090909092,36.36363636363637,758.3333333333333,844.4444444444445,3.6666666666666665,23.4375,12,11,11,11,12,1.0,0.9166666666666666,0.9166666666666666,0.9166666666666666,0
64800-68400,789.8989898989898,100.32564821737105,168.0038947226382,177.08293996567295,0.1270107311191782,0.21269035265397931,802.7777777777778,37.065,0.046170934256055354,45.83333333333326,775.0,825.0,36.36363636363637,63.63636363636363,522.2222222222223,938.8888888888889,5.5,257.8125,12,11,11,10,12,1.0,0.9166666666666666,0.9166666666666666,0.8333333333333334,1
68400-72000,820.9595959595958,29.53768351571849,30.020569080236243,31.377824992095444,0.035979460695861346,0.03656765720016473,827.7777777777777,24.71000000000011,0.02985100671140953,37.5,791.6666666666666,844.4444444444445,9.090909090909092,45.45454545454545,769.4444444444445,869.4444444444445,5.5,62.5,12,11,11,12,12,1.0,0.9166666666666666,0.9166666666666666,1.0,0
72000-75600,806.5656565656566,83.28028614627868,125.9010732556064,131.25338848588274,0.10325295339363293,0.15609525676023836,800.0,37.065,0.04633125,52.77777777777783,786.1111111111111,841.6666666666666,18.181818181818183,54.54545454545454,611.1111111111112,961.1111111111111,5.5,187.5,12,11,11,12,12,1.0,0.9166666666666666,0.9166666666666666,1.0,1
75600-79200,799.2424242424244,25.55226153562024,29.00085141364044,29.750909197528106,0.031970602110918206,0.03628542546540794,802.7777777777778,28.82833333333335,0.03591072664359864,30.555555555555543,783.3333333333334,825.0,9.090909090909092,45.45454545454545,750.0,830.5555555555557,5.5,54.6875,12,11,11,12,12,1.0,0.9166666666666666,0.9166666666666666,1.0,1
79200-82800,820.7070707070707,21.385773090646584,14.10936122133366,14.861038998325098,0.02605774198121861,0.017191713980455783,830.5555555555557,24.709999999999773,0.029751170568561598,34.72222222222217,797.2222222222223,838.8888888888889,0.0,18.181818181818183,788.8888888888889,847.2222222222222,3.6666666666666665,54.6875,12,11,11,12,12,1.0,0.9166666666666666,0.9166666666666666,1.0,0
82800-86400,819.1919191919192,29.304029593092082,28.47730306969844,29.49768073466589,0.03577187336271413,0.034762675757091806,836.1111111111111,32.94666666666659,0.039404651162790606,43.05555555555566,786.1111111111111,838.8888888888889,9.090909090909092,45.45454545454545,769.4444444444445,858.3333333333333,2.75,70.3125,12,11,11,11,12,1.0,0.9166666666666666,0.9166666666666666,0.9166666666666666,0
86400-90000,811.9444444444445,21.116389853356985,21.615958388756987,22.24150398048951,0.026007185587439325,0.026622459869834126,805.5555555555557,26.769166666666646,0.03323068965517238,34.02777777777794,793.8888888888888,831.6666666666667,0.0,20.0,783.3333333333334,844.4444444444445,5.0,0.0,11,10,10,11,11,1.0,0.9090909090909091,0.9090909090909091,1.0,0
93600-97200,814.6464646464648,31.157973364014488,30.429030972509207,31.158473648587755,0.03824723326766812,0.03735243727561576,822.2222222222222,32.94666666666676,0.04007027027027038,54.16666666666674,777.7777777777778,844.4444444444445,9.090909090909092,45.45454545454545,769.4444444444445,855.5555555555555,5.5,0.0,12,11,11,9,12,1.0,0.9166666666666666,0.9166666666666666,0.75,0
97200-100800,794.675925925926,94.28431414081618,164.12412496358274,172.11017860732963,0.11864498604378848,0.2065296300153444,805.5555555555555,28.828333333333266,0.035786896551724054,40.27777777777783,778.3333333333334,821.6666666666666,25.0,50.0,547.2222222222223,975.0,6.0,226.5625,13,12,11,11,13,1.0,0.9230769230769231,0.8461538461538461,0.8461538461538461,1
111600-115200,805.5555555555555,20.861092617242864,19.48408657416686,20.1247822028106,0.02589652876623252,0.02418714195413817,800.0,16.473333333333294,0.020591666666666616,26.388888888888914,788.8888888888889,825.0,0.0,27.27272727272727,780.5555555555555,847.2222222222222,5.5,0.0,12,11,11,12,12,1.0,0.9166666666666666,0.9166666666666666,1.0,0
115200-118800,772.7272727272727,18.873285296088838,21.641723534202697,22.262694626133186,0.024424251559644377,0.02800693633837996,775.0,24.709999999999944,0.03188387096774186,31.94444444444457,755.5555555555555,791.6666666666666,0.0,27.27272727272727,741.6666666666667,794.4444444444443,3.6666666666666665,0.0,12,11,11,12,12,1.0,0.9166666666666666,0.9166666666666666,1.0,0
118800-122400,822.9797979797978,32.06116138858255,28.423060538414415,29.193843893225218,0.03895740997201194,0.034536765796907364,827.7777777777777,45.30166666666665,0.05472684563758388,51.38888888888903,791.6666666666666,844.4444444444445,9.090909090909092,45.45454545454545,780.5555555555555,875.0,5.5,15.625,11,11,11,12,12,0.9166666666666666,0.9166666666666666,0.9166666666666666,1.0,0
122400-126000,802.0202020202019,35.747979937120036,40.76808846434962,42.48779377688884,0.04457241830950736,0.050831747581493864,794.4444444444443,37.06500000000017,0.046655244755244976,44.44444444444446,772.2222222222223,833.3333333333334,9.090909090909092,63.63636363636363,744.4444444444445,858.3333333333333,3.6666666666666665,46.875,12,11,11,11,12,1.0,0.9166666666666666,0.9166666666666666,0.9166666666666666,1
126000-129600,767.5925925925926,90.61094957325196,156.69899014641686,164.29926364994674,0.11804562791207733,0.20414343710269023,769.4444444444443,45.30166666666681,0.05887581227436843,44.44444444444446,751.6666666666666,802.2222222222223,25.0,66.66666666666666,536.1111111111111,938.8888888888889,4.0,226.5625,13,12,12,13,13,1.0,0.9230769230769231,0.9230769230769231,1.0,1
133200-136800,750.2314814814814,30.851603771824852,27.17786532523045,28.444030142184797,0.04112277947987762,0.03622597291113717,755.5555555555554,32.94666666666676,0.04360588235294131,38.19444444444457,726.6666666666666,775.5555555555557,8.333333333333332,41.66666666666667,700.0,802.7777777777778,6.0,62.5,13,12,12,11,13,1.0,0.9230769230769231,0.9230769230769231,0.8461538461538461,1
136800-140400,790.9090909090909,21.981014152331174,22.787938113326323,23.615649527512694,0.027792086859269302,0.028812335545585006,780.5555555555555,24.71000000000011,0.0316569395017795,36.111111111111086,772.2222222222223,813.8888888888889,0.0,27.27272727272727,763.8888888888888,822.2222222222222,3.6666666666666665,15.625,12,11,11,11,12,1.0,0.9166666666666666,0.9166666666666666,0.9166666666666666,0
140400-144000,720.7264957264958,51.11432388019685,39.94917037926782,37.4617899858144,0.07092055611008634,0.055429029758367436,733.3333333333333,28.82833333333335,0.039311363636363665,47.22222222222206,700.5555555555555,752.7777777777777,7.6923076923076925,38.46153846153847,572.2222222222222,783.3333333333334,4.333333333333333,179.6875,14,13,13,11,14,1.0,0.9285714285714286,0.9285714285714286,0.7857142857142857,1
144000-147600,759.0277777777778,24.335299261021138,26.72237447194074,28.006633012642293,0.03206114449759418,0.03520605602890637,763.8888888888888,16.47333333333338,0.02156509090909097,18.750000000000114,745.5555555555555,768.8888888888889,0.0,41.66666666666667,708.3333333333334,811.1111111111111,4.0,70.3125,13,12,12,12,13,1.0,0.9230769230769231,0.9230769230769231,0.9230769230769231,1
147600-151200,761.574074074074,21.149398207023925,21.646584840138228,22.647446792964985,0.027770638375180352,0.028423479182187586,758.3333333333333,24.709999999999944,0.032584615384615316,23.611111111111086,744.4444444444445,777.2222222222223,8.333333333333332,33.33333333333333,727.7777777777777,800.0,3.0,31.25,13,12,12,11,13,1.0,0.9230769230769231,0.9230769230769231,0.8461538461538461,1
151200-154800,771.7592592592592,26.77045598938383,29.658550700086998,30.55555555555557,0.03468757344755193,0.03842979574816312,766.6666666666667,22.650833333333406,0.029544565217391395,33.33333333333337,752.7777777777777,792.2222222222222,8.333333333333332,66.66666666666666,730.5555555555555,819.4444444444445,4.0,39.0625,13,12,12,10,13,1.0,0.9230769230769231,0.9230769230769231,0.7692307692307693,1
154800-158400,746.2962962962964,33.086911817705555,26.09821301896719,27.268050478167837,0.044334819805362274,0.03497031024874015,736.1111111111112,20.59166666666687,0.027973584905660653,32.638888888888914,727.7777777777777,765.0,8.333333333333332,41.66666666666667,702.7777777777777,825.0,4.0,46.875,13,12,12,11,13,1.0,0.9230769230769231,0.9230769230769231,0.8461538461538461,0
162000-165600,738.6574074074075,25.471379080516538,20.48102787473901,21.24426376661262,0.03448334616979989,0.027727370861445475,738.8888888888889,20.591666666666786,0.02786842105263174,29.861111111111086,715.5555555555555,750.0,0.0,33.33333333333333,702.7777777777777,783.3333333333334,4.0,54.6875,13,12,12,8,13,1.0,0.9230769230769231,0.9230769230769231,0.6153846153846154,0
165600-169200,767.824074074074,33.17424860746148,23.405971592156533,24.30573593006662,0.04320553330848164,0.03048350837446977,752.7777777777777,14.414166666666675,0.01914797047970481,30.555555555555657,747.7777777777778,796.6666666666667,0.0,33.33333333333333,719.4444444444445,833.3333333333334,3.0,31.25,13,12,12,9,13,1.0,0.9230769230769231,0.9230769230769231,0.6923076923076923,0
169200-172800,793.2870370370373,81.46438162320406,135.7757154036694,142.34734473966566,0.1026921880981154,0.17115584783888288,780.5555555555557,51.479166666666586,0.06595195729537355,45.1388888888888,772.2222222222223,818.8888888888889,25.0,66.66666666666666,622.2222222222223,986.1111111111112,4.0,203.125,13,12,12,12,13,1.0,0.9230769230769231,0.9230769230769231,0.9230769230769231,1
180000-183600,762.2685185185186,32.03398372013179,25.028042633605715,24.75185489993942,0.04202453983327341,0.03283363017831056,755.5555555555555,43.24250000000003,0.05723272058823533,48.611111111111086,732.2222222222222,796.1111111111112,0.0,41.66666666666667,719.4444444444445,816.6666666666666,3.0,39.0625,13,12,12,12,13,1.0,0.9230769230769231,0.9230769230769231,0.9230769230769231,1
183600-187200,814.8989898989898,30.813875924572475,30.85709794888622,32.47875743465737,0.03781312322941029,0.03786616296175688,805.5555555555555,16.473333333333294,0.020449655172413744,20.833333333333258,800.0,825.0,18.181818181818183,36.36363636363637,777.7777777777778,883.3333333333333,3.6666666666666665,46.875,12,11,11,12,12,1.0,0.9166666666666666,0.9166666666666666,1.0,0
187200-190800,806.5656565656566,50.754686082878,57.28556364800063,58.35610960405695,0.06292691198753816,0.07102405511774655,819.4444444444445,32.94666666666659,0.040206101694915154,44.44444444444434,786.1111111111111,836.1111111111111,9.090909090909092,36.36363636363637,672.2222222222223,852.7777777777777,5.5,140.625,12,11,11,10,12,1.0,0.9166666666666666,0.9166666666666666,0.8333333333333334,1
190800-194400,800.2525252525254,25.74370789283915,27.74998609720482,29.227596557854287,0.03216948035836006,0.03467653674500822,797.2222222222223,28.82833333333318,0.036160975609755903,33.33333333333337,775.0,816.6666666666666,9.090909090909092,27.27272727272727,769.4444444444445,844.4444444444445,5.5,0.0,12,11,11,12,12,1.0,0.9166666666666666,0.9166666666666666,1.0,0
194400-198000,781.25,26.778097361771195,23.225460119345975,23.116476649888185,0.03427596462306713,0.029728588952762848,787.5,30.88749999999997,0.039222222222222186,40.972222222222285,752.7777777777777,804.4444444444445,0.0,25.0,736.1111111111112,816.6666666666666,6.0,31.25,13,12,12,12,13,1.0,0.9230769230769231,0.9230769230769231,0.9230769230769231,0
198000-201600,768.75,17.005190004617834,18.07982052491792,18.895572198515584,0.022120572363730516,0.023518465723470466,772.2222222222223,14.414166666666844,0.018665827338129725,18.055555555555657,756.6666666666666,777.7777777777778,0.0,25.0,738.8888888888889,797.2222222222223,4.0,46.875,13,12,12,10,13,1.0,0.9230769230769231,0.9230769230769231,0.7692307692307693,1
205200-208800,766.4351851851851,53.437639129364264,48.258097719560574,48.39164020521351,0.06972231985468247,0.06296435582860214,773.6111111111111,24.710000000000026,0.03194111310592463,23.6111111111112,756.1111111111111,788.8888888888889,16.666666666666664,33.33333333333333,616.6666666666667,841.6666666666666,4.0,164.0625,13,12,12,12,13,1.0,0.9230769230769231,0.9230769230769231,0.9230769230769231,1
208800-212400,789.8989898989898,21.597922542154926,22.68612998788379,23.50648569404833,0.027342638512446775,0.02872029243990403,786.1111111111111,28.82833333333318,0.03667208480565352,37.5,769.4444444444445,808.3333333333334,9.090909090909092,18.181818181818183,766.6666666666667,825.0,2.75,0.0,12,11,11,11,12,1.0,0.9166666666666666,0.9166666666666666,0.9166666666666666,0
212400-216000,776.010101010101,20.981794256823953,23.04049039258635,24.223184939527258,0.02703804271299149,0.029690967118334508,780.5555555555555,24.71000000000011,0.0316569395017795,31.94444444444457,758.3333333333333,797.2222222222223,0.0,54.54545454545454,741.6666666666667,800.0,3.6666666666666665,0.0,12,11,11,12,12,1.0,0.9166666666666666,0.9166666666666666,1.0,1
216000-219600,784.2592592592592,23.757960841149455,27.689252879556996,28.981494927977376,0.03029350378800639,0.035306249244299356,777.7777777777778,18.532499999999914,0.023827499999999887,25.694444444444343,770.0,803.3333333333333,8.333333333333332,41.66666666666667,747.2222222222223,827.7777777777777,4.0,46.875,13,12,12,12,13,1.0,0.9230769230769231,0.9230769230769231,0.9230769230769231,1
219600-223200,778.2407407407408,54.12078260349405,56.114611351972655,56.59259369436069,0.06954246902055154,0.07210443814411716,791.6666666666666,32.94666666666667,0.04161684210526317,41.66666666666674,764.9999999999999,812.7777777777778,8.333333333333332,41.66666666666667,622.2222222222223,833.3333333333334,4.0,171.875,13,12,12,9,13,1.0,0.9230769230769231,0.9230769230769231,0.6923076923076923,1
223200-226800,774.2424242424244,24.598344729105197,28.12285657127307,29.642647603196643,0.03177085620588929,0.036323063281879106,769.4444444444445,16.473333333333294,0.021409386281588397,19.444444444444457,755.5555555555555,780.5555555555555,0.0,54.54545454545454,733.3333333333333,816.6666666666666,3.6666666666666665,54.6875,12,11,11,11,12,1.0,0.9166666666666666,0.9166666666666666,0.9166666666666666,1
230400-234000,786.6161616161615,26.667192755753344,20.693978369099113,21.57427276970975,0.03390115034118243,0.026307593689127606,786.1111111111111,24.709999999999944,0.03143321554770311,30.555555555555657,763.8888888888888,797.2222222222223,9.090909090909092,27.27272727272727,747.2222222222223,830.5555555555557,5.5,23.4375,12,11,11,10,12,1.0,0.9166666666666666,0.9166666666666666,0.8333333333333334,0
234000-237600,774.074074074074,29.476667457999387,29.373365704233013,30.027578046224598,0.038079905328515955,0.0379464533021192,775.0,30.88749999999997,0.03985483870967738,31.25,750.0,801.1111111111111,0.0,58.333333333333336,730.5555555555555,827.7777777777777,6.0,0.0,13,12,12,13,13,1.0,0.9230769230769231,0.9230769230769231,1.0,1
237600-241200,759.7222222222222,22.520099514764205,21.59792254215496,21.11177564079041,0.029642544151060747,0.02842870974470123,758.3333333333333,14.414166666666675,0.019007692307692323,20.138888888889028,747.7777777777778,775.5555555555557,0.0,33.33333333333333,711.1111111111111,797.2222222222223,3.0,46.875,13,12,12,12,13,1.0,0.9230769230769231,0.9230769230769231,0.9230769230769231,1
241200-244800,728.8461538461538,26.145034640264186,23.624723744764943,24.67048079226489,0.035871815337565637,0.03241386899017881,719.4444444444445,28.82833333333335,0.0400702702702703,30.555555555555543,710.5555555555555,747.7777777777778,0.0,38.46153846153847,686.1111111111111,786.1111111111111,4.333333333333333,39.0625,14,13,13,12,14,1.0,0.9285714285714286,0.9285714285714286,0.8571428571428571,1
252000-255600,800.0,34.11129207335278,43.33689444056976,45.44023343706339,0.04263911509169097,0.054171118050712196,791.6666666666666,49.42000000000005,0.0624252631578948,47.222222222222285,775.0,830.5555555555557,18.181818181818183,45.45454545454545,747.2222222222223,850.0,5.5,46.875,12,11,11,12,12,1.0,0.9166666666666666,0.9166666666666666,1.0,1
255600-259200,756.2500000000001,39.88840001388611,32.056785334322264,33.158210010999646,0.05274499175389898,0.042389137632161664,747.2222222222222,45.30166666666656,0.06062676579925637,65.97222222222229,720.0,796.6666666666667,8.333333333333332,75.0,700.0,825.0,6.0,23.4375,13,12,12,12,13,1.0,0.9230769230769231,0.9230769230769231,0.9230769230769231,1
270000-273600,792.4242424242424,32.1092586232978,36.69401337117474,38.088095487076366,0.040520288128827055,0.04630602069784958,794.4444444444443,41.18333333333307,0.051839160839160514,50.0,758.3333333333333,816.6666666666666,18.181818181818183,54.54545454545454,752.7777777777777,850.0,5.5,0.0,12,11,11,11,12,1.0,0.9166666666666666,0.9166666666666666,0.9166666666666666,0
273600-277200,791.6666666666667,28.490847566573503,21.318426504833184,22.469686942094206,0.03598843903146126,0.026928538742947178,794.4444444444443,32.946666666666424,0.04147132867132837,43.05555555555554,772.2222222222223,822.2222222222222,0.0,36.36363636363637,744.4444444444445,827.7777777777777,3.6666666666666665,0.0,12,11,11,11,12,1.0,0.9166666666666666,0.9166666666666666,0.9166666666666666,0
277200-280800,778.4722222222222,102.3100536698638,162.31913875398718,170.1508705325524,0.13142415458037812,0.20850986601761065,794.4444444444445,57.6566666666667,0.07257482517482522,74.30555555555566,732.2222222222222,835.5555555555555,41.66666666666667,83.33333333333334,538.8888888888889,950.0,6.0,250.0,13,12,12,8,13,1.0,0.9230769230769231,0.9230769230769231,0.6153846153846154,1
280800-284400,784.3434343434345,23.51361331704139,20.525503557679105,20.98402292476343,0.02997872142159816,0.026169025785064148,780.5555555555555,32.94666666666676,0.042209252669039264,40.27777777777783,758.3333333333333,808.3333333333334,0.0,36.36363636363637,752.7777777777777,819.4444444444445,5.5,0.0,12,11,11,8,12,1.0,0.9166666666666666,0.9166666666666666,0.6666666666666666,0
284400-288000,799.4949494949494,26.86897167009384,22.326145886011247,23.46815838880132,0.03360743140037006,0.027925311973659047,802.7777777777778,24.71000000000011,0.03078062283737038,34.72222222222217,769.4444444444445,819.4444444444445,0.0,36.36363636363637,761.1111111111111,838.8888888888889,5.5,0.0,12,11,11,11,12,1.0,0.9166666666666666,0.9166666666666666,0.9166666666666666,0
288000-291600,803.5353535353535,24.535528191967067,29.788348041010046,31.048216849721445,0.030534472545628407,0.0370716084985543,797.2222222222223,28.82833333333318,0.036160975609755903,41.66666666666674,780.5555555555555,825.0,9.090909090909092,36.36363636363637,763.8888888888888,841.6666666666666,3.6666666666666665,62.5,12,11,11,10,12,1.0,0.9166666666666666,0.9166666666666666,0.8333333333333334,1
291600-295200,795.9595959595958,22.165331217208884,23.207331749117127,24.39950976592681,0.027847306986087308,0.02915641932947457,791.6666666666666,24.709999999999944,0.0312126315789473,20.833333333333485,775.0,808.3333333333334,0.0,45.45454545454545,766.6666666666667,836.1111111111111,2.75,23.4375,12,11,11,7,12,1.0,0.9166666666666666,0.9166666666666666,0.5833333333333334,1
298800-302400,793.2870370370371,31.836297686059638,34.47131568330794,36.149940274061066,0.04013212897688288,0.043453774074085294,788.8888888888889,28.82833333333335,0.036542957746478893,33.33333333333337,769.4444444444445,815.0,16.666666666666664,41.66666666666667,752.7777777777777,858.3333333333333,4.0,31.25,13,12,12,10,13,1.0,0.9230769230769231,0.9230769230769231,0.7692307692307693,0
302400-306000,773.7373737373738,70.17794442185676,76.83957956453378,76.38524121481724,0.09069995427890104,0.09930963938497185,794.4444444444443,37.06499999999983,0.046655244755244546,52.77777777777783,750.0,813.8888888888889,36.36363636363637,45.45454545454545,586.1111111111111,841.6666666666666,11.0,0.0,12,11,11,10,12,1.0,0.9166666666666666,0.9166666666666666,0.8333333333333334,0
306000-309600,802.5252525252525,62.52721068717796,93.12808119022337,98.1586297687552,0.0779130756202721,0.11604380160896303,808.3333333333334,49.41999999999989,0.06113814432989677,56.94444444444446,775.0,841.6666666666666,36.36363636363637,72.72727272727273,644.4444444444445,880.5555555555555,5.5,203.125,12,11,11,6,12,1.0,0.9166666666666666,0.9166666666666666,0.5,1
309600-313200,769.1919191919192,57.13659377249994,56.825757070774394,58.00835401735227,0.07428132348624418,0.07387721536449987,777.7777777777778,32.94666666666676,0.04236000000000011,37.5,755.5555555555555,802.7777777777778,9.090909090909092,54.54545454545454,613.8888888888889,816.6666666666666,5.5,164.0625,12,11,11,8,12,1.0,0.9166666666666666,0.9166666666666666,0.6666666666666666,1
313200-316800,804.2929292929293,22.442094086357447,23.504662001451315,23.92403386624987,0.027902886210981314,0.02922400675847636,808.3333333333334,32.94666666666676,0.04075876288659805,33.33333333333337,783.3333333333334,822.2222222222222,0.0,36.36363636363637,772.2222222222223,838.8888888888889,5.5,15.625,12,11,11,12,12,1.0,0.9166666666666666,0.9166666666666666,1.0,1
316800-320400,814.1414141414141,128.65312815847392,211.19515870807356,222.5699440009031,0.1580230730482496,0.25940844555954445,811.1111111111111,41.18333333333324,0.05077397260273961,72.22222222222217,783.3333333333334,883.3333333333333,54.54545454545454,81.81818181818183,588.8888888888889,1008.3333333333333,5.5,226.5625,12,11,11,9,12,1.0,0.9166666666666666,0.9166666666666666,0.75,1
320400-324000,817.7777777777777,26.714206595353033,29.960536458080444,31.16328847693782,0.03266682871714366,0.03663652556015272,819.4444444444443,39.1241666666667,0.04774474576271191,47.91666666666674,792.7777777777777,847.2222222222222,0.0,50.0,783.3333333333334,852.7777777777777,5.0,0.0,11,10,10,11,11,1.0,0.9090909090909091,0.9090909090909091,1.0,1
324000-327600,814.1414141414142,24.921312754451,24.120325940102656,25.255892031455264,0.030610545442812023,0.029626703077793585,802.7777777777778,12.355000000000224,0.015390311418685399,33.33333333333337,797.2222222222223,836.1111111111111,9.090909090909092,27.27272727272727,777.7777777777778,855.5555555555555,2.75,23.4375,12,11,11,11,12,1.0,0.9166666666666666,0.9166666666666666,0.9166666666666666,0
327600-331200,824.4949494949495,25.513799879424408,29.462782549439456,30.822348171033376,0.03094476187519775,0.035734339631173125,836.1111111111111,24.709999999999944,0.029553488372092956,31.944444444444457,808.3333333333334,844.4444444444445,9.090909090909092,54.54545454545454,780.5555555555555,855.5555555555555,3.6666666666666665,70.3125,12,11,11,11,12,1.0,0.9166666666666666,0.9166666666666666,0.9166666666666666,1
338400-342000,821.7171717171717,26.288351813634872,26.087459737497532,27.191340508115026,0.03199197086109222,0.03174749248939466,816.6666666666666,37.065,0.045385714285714286,43.05555555555543,800.0,847.2222222222222,0.0,36.36363636363637,777.7777777777778,855.5555555555555,3.6666666666666665,70.3125,12,11,11,7,12,1.0,0.9166666666666666,0.9166666666666666,0.5833333333333334,1
342000-345600,795.2020202020202,18.63766385653473,22.17007771026103,23.32341058853705,0.023437646513775015,0.02787980556768297,794.4444444444443,20.591666666666534,0.025919580419580257,22.222222222222285,780.5555555555555,813.8888888888889,9.090909090909092,27.27272727272727,763.8888888888888,822.2222222222222,3.6666666666666665,39.0625,12,11,11,12,12,1.0,0.9166666666666666,0.9166666666666666,1.0,1
345600-349200,811.111111111111,90.53169419778351,142.57605724232042,150.18535644142403,0.11161441750411667,0.17577870070971013,819.4444444444445,37.065,0.045231864406779655,41.666666666666515,800.0,847.2222222222222,27.27272727272727,45.45454545454545,577.7777777777777,952.7777777777777,3.6666666666666665,281.25,12,11,11,8,12,1.0,0.9166666666666666,0.9166666666666666,0.6666666666666666,1
349200-352800,810.3535353535353,81.93352949049567,132.41873818392253,139.56655663567312,0.10110837543856743,0.16340860181001346,819.4444444444445,28.82833333333335,0.03518033898305087,41.66666666666674,791.6666666666666,838.8888888888889,27.27272727272727,45.45454545454545,600.0,944.4444444444445,5.5,226.5625,12,11,11,11,12,1.0,0.9166666666666666,0.9166666666666666,0.9166666666666666,1
356400-360000,793.939393939394,32.00641770662209,25.48904388212102,26.345806287079604,0.040313426882386594,0.032104520920228766,794.4444444444443,32.946666666666424,0.04147132867132837,36.111111111111086,772.2222222222223,822.2222222222222,9.090909090909092,54.54545454545454,747.2222222222223,850.0,5.5,0.0,12,11,11,9,12,1.0,0.9166666666666666,0.9166666666666666,0.75,1
363600-367200,804.2929292929292,32.30744563983733,39.78142441385255,41.907738824568014,0.040168755018447674,0.04946136285050427,800.0,32.94666666666659,0.04118333333333323,33.33333333333326,777.7777777777778,822.2222222222222,9.090909090909092,54.54545454545454,761.1111111111111,861.1111111111112,5.5,46.875,12,11,11,10,12,1.0,0.9166666666666666,0.9166666666666666,0.8333333333333334,1
367200-370800,806.5656565656566,34.00419199086695,38.95827143983997,39.912670444393314,0.042159236156491274,0.04830142608070328,797.2222222222223,37.065,0.04649268292682926,37.500000000000114,788.8888888888889,833.3333333333334,18.181818181818183,45.45454545454545,744.4444444444445,863.8888888888889,5.5,54.6875,12,11,11,11,12,1.0,0.9166666666666666,0.9166666666666666,0.9166666666666666,1
374400-378000,784.3434343434343,73.04312026899419,113.39663264972329,119.09041705713456,0.09312645082589086,0.14457523029391636,800.0,32.94666666666659,0.04118333333333323,45.83333333333326,747.2222222222223,822.2222222222222,45.45454545454545,63.63636363636363,611.1111111111112,897.2222222222223,3.6666666666666665,187.5,12,11,11,8,12,1.0,0.9166666666666666,0.9166666666666666,0.6666666666666666,1
378000-381600,793.939393939394,25.96347689419631,29.44968506821904,30.485328950285783,0.03270208921788085,0.03709311478058123,800.0,32.94666666666659,0.04118333333333323,36.111111111111086,772.2222222222223,811.1111111111111,9.090909090909092,45.45454545454545,758.3333333333333,833.3333333333334,5.5,0.0,12,11,11,5,12,1.0,0.9166666666666666,0.9166666666666666,0.4166666666666667,1
381600-385200,805.8080808080808,21.640102856210852,22.686129987883785,23.69538337768852,0.026855157414790026,0.02815326692322776,805.5555555555555,16.473333333333464,0.020449655172413955,25.0,794.4444444444443,825.0,0.0,27.27272727272727,761.1111111111111,836.1111111111111,5.5,62.5,12,11,11,10,12,1.0,0.9166666666666666,0.9166666666666666,0.8333333333333334,1
385200-388800,804.0404040404042,26.769582550796045,28.341502090410494,29.45696216563135,0.03329382754433176,0.03524885310239496,811.1111111111111,32.94666666666676,0.04061917808219189,47.222222222222285,780.5555555555555,830.5555555555557,0.0,63.63636363636363,758.3333333333333,833.3333333333334,3.6666666666666665,0.0,12,11,11,11,12,1.0,0.9166666666666666,0.9166666666666666,0.9166666666666666,1
396000-399600,800.0,104.47546820565161,174.2399721683706,183.63144486874143,0.13059433525706451,0.21779996521046324,797.2222222222223,20.591666666666534,0.02582926829268276,27.777777777777715,788.8888888888889,825.0,27.27272727272727,63.63636363636363,563.8888888888889,1022.2222222222222,5.5,242.1875,12,10,11,10,12,1.0,0.8333333333333334,0.9166666666666666,0.8333333333333334,1
403200-406800,809.5959595959595,20.35046471561308,19.778870132130972,20.797293930755718,0.0251365690186612,0.024430544517541692,816.6666666666666,8.236666666666647,0.010085714285714262,16.66666666666663,800.0,819.4444444444445,0.0,27.27272727272727,766.6666666666667,841.6666666666666,2.2,46.875,12,11,11,11,12,1.0,0.9166666666666666,0.9166666666666666,0.9166666666666666,0
406800-410400,801.010101010101,25.798145906460018,27.44242007828551,28.634923567850272,0.03220701695762348,0.03425976781526186,791.6666666666666,20.591666666666704,0.026010526315789522,33.33333333333337,786.1111111111111,825.0,9.090909090909092,54.54545454545454,752.7777777777777,838.8888888888889,2.75,31.25,12,11,11,12,12,1.0,0.9166666666666666,0.9166666666666666,1.0,1
410400-414000,805.0505050505052,25.903970982889465,22.95661501266042,23.897141841714408,0.03217682719330058,0.028515745122376177,805.5555555555555,28.82833333333335,0.03578689655172416,30.555555555555657,780.5555555555555,813.8888888888889,0.0,45.45454545454545,769.4444444444445,850.0,3.6666666666666665,46.875,12,11,11,10,12,1.0,0.9166666666666666,0.9166666666666666,0.8333333333333334,1
414000-417600,807.0707070707072,27.311747245429103,32.5723316654405,34.333003714107555,0.03384058795115746,0.04035870882201013,811.1111111111111,20.591666666666534,0.0253869863013697,30.55555555555543,780.5555555555555,822.2222222222222,9.090909090909092,81.81818181818183,758.3333333333333,850.0,5.5,15.625,12,11,11,11,12,1.0,0.9166666666666666,0.9166666666666666,0.9166666666666666,1
421200-424800,793.4343434343434,105.68904371712628,176.20616082053178,185.6856662929766,0.13320452359001275,0.22208032999659638,811.1111111111111,61.77499999999994,0.07616095890410952,70.83333333333337,763.8888888888888,847.2222222222222,63.63636363636363,72.72727272727273,597.2222222222222,961.1111111111111,5.5,226.5625,12,11,11,10,12,1.0,0.9166666666666666,0.9166666666666666,0.8333333333333334,1
428400-432000,811.1111111111112,28.65288212939469,37.75121615243212,39.792198572274955,0.0353254711184318,0.04654259525642316,816.6666666666666,41.18333333333324,0.050428571428571316,44.44444444444446,783.3333333333334,833.3333333333334,27.27272727272727,45.45454545454545,777.7777777777778,858.3333333333333,3.6666666666666665,0.0,12,11,11,8,12,1.0,0.9166666666666666,0.9166666666666666,0.6666666666666666,0
432000-435600,798.2323232323232,112.60984162574968,185.6711216966676,195.5664278683605,0.14107401861371996,0.2326028604615007,794.4444444444443,45.30166666666681,0.057023076923077114,43.05555555555566,783.3333333333334,833.3333333333334,27.27272727272727,54.54545454545454,536.1111111111111,1027.7777777777776,3.6666666666666665,250.0,12,10,11,9,12,1.0,0.8333333333333334,0.9166666666666666,0.75,1
435600-439200,809.8484848484849,106.37375607753374,155.00647139019551,161.00597889536542,0.13135019459527084,0.19140181687096172,819.4444444444445,45.30166666666665,0.05528338983050845,54.16666666666674,783.3333333333334,841.6666666666666,27.27272727272727,45.45454545454545,550.0,1008.3333333333333,5.5,234.375,12,11,11,10,12,1.0,0.9166666666666666,0.9166666666666666,0.8333333333333334,1
439200-442800,800.5050505050505,69.89650839292251,74.43200559430147,75.73372239510567,0.08731551206182118,0.09298130667300752,819.4444444444445,28.82833333333335,0.03518033898305087,26.388888888888914,797.2222222222223,825.0,9.090909090909092,54.54545454545454,602.7777777777777,863.8888888888889,3.6666666666666665,218.75,12,11,11,9,12,1.0,0.9166666666666666,0.9166666666666666,0.75,1
442800-446400,816.6666666666667,80.99497012275015,133.66856006786819,140.54689379449556,0.09917751443602058,0.16367578783820594,822.2222222222222,37.06499999999983,0.045079054054053845,48.611111111111086,783.3333333333334,838.8888888888889,36.36363636363637,63.63636363636363,644.4444444444445,986.1111111111112,5.5,179.6875,12,11,11,9,12,1.0,0.9166666666666666,0.9166666666666666,0.75,1
446400-450000,801.5151515151515,62.73552703542882,73.51408700143341,74.0486067331593,0.07827116794590362,0.09171889871634414,816.6666666666666,41.18333333333324,0.050428571428571316,52.777777777777715,788.8888888888889,844.4444444444445,9.090909090909092,27.27272727272727,627.7777777777777,852.7777777777777,5.5,171.875,12,11,11,10,12,1.0,0.9166666666666666,0.9166666666666666,0.8333333333333334,1
453600-457200,806.3131313131312,90.67724363934528,148.6305802407972,156.45572875969867,0.1124590932702184,0.18433357273835171,822.2222222222222,24.71000000000011,0.03005270270270284,40.277777777777715,788.8888888888889,838.8888888888889,27.27272727272727,54.54545454545454,577.7777777777777,961.1111111111111,5.5,250.0,12,11,11,12,12,1.0,0.9166666666666666,0.9166666666666666,1.0,1
457200-460800,817.6767676767676,81.82215665616079,140.61428285636515,148.21323801598302,0.10006662765855366,0.1719680543888839,822.2222222222222,37.06499999999983,0.045079054054053845,47.22222222222217,788.8888888888889,841.6666666666666,27.27272727272727,54.54545454545454,641.6666666666667,988.8888888888889,3.6666666666666665,195.3125,12,11,11,11,12,1.0,0.9166666666666666,0.9166666666666666,0.9166666666666666,1
464400-468000,811.6161616161615,24.36914481173309,25.998575459550192,27.34853536903348,0.030025455337418495,0.032033092352152695,819.4444444444445,32.94666666666659,0.040206101694915154,44.44444444444446,783.3333333333334,833.3333333333334,0.0,36.36363636363637,780.5555555555555,841.6666666666666,3.6666666666666665,0.0,12,11,11,12,12,1.0,0.9166666666666666,0.9166666666666666,1.0,0
478800-482400,807.8282828282828,26.376259604179463,25.15384760593723,26.456216904432384,0.032650824642872986,0.031137616917634083,811.1111111111111,32.94666666666659,0.04061917808219168,40.277777777777715,788.8888888888889,833.3333333333334,0.0,54.54545454545454,766.6666666666667,836.1111111111111,5.5,0.0,12,11,11,10,12,1.0,0.9166666666666666,0.9166666666666666,0.8333333333333334,1
482400-486000,790.2777777777777,22.737091032979006,21.54915035523552,21.836937785592816,0.02877101150043038,0.027267817672705755,791.6666666666666,22.650833333333324,0.02861157894736841,28.472222222222285,775.0,805.0,0.0,41.66666666666667,750.0,827.7777777777777,4.0,23.4375,13,12,12,9,13,1.0,0.9230769230769231,0.9230769230769231,0.6923076923076923,1
489600-493200,822.7272727272727,23.13467621443138,21.045218805417562,22.113933686708407,0.02811949595124256,0.025579823962385985,830.5555555555557,12.355000000000224,0.014875585284281205,20.83333333333337,813.8888888888889,838.8888888888889,0.0,27.27272727272727,775.0,847.2222222222222,3.6666666666666665,62.5,12,11,11,10,12,1.0,0.9166666666666666,0.9166666666666666,0.8333333333333334,0
514800-518400,799.3055555555555,46.55839110479566,49.27931795846184,51.07019662351992,0.05824855186003975,0.0616526653867811,808.3333333333334,43.24249999999994,0.05349587628865972,45.83333333333326,776.6666666666666,837.7777777777777,8.333333333333332,50.0,680.5555555555555,850.0,6.0,140.625,13,12,12,11,13,1.0,0.9230769230769231,0.9230769230769231,0.8461538461538461,1
518400-522000,802.7777777777777,96.96792138525903,171.78259300423676,181.05960033969882,0.12079049030689708,0.21398523696029495,797.2222222222223,32.94666666666676,0.04132682926829279,48.611111111111086,775.0,847.2222222222222,45.45454545454545,72.72727272727273,594.4444444444445,1000.0,5.5,203.125,12,10,11,11,12,1.0,0.8333333333333334,0.9166666666666666,0.9166666666666666,1
522000-525600,829.0404040404039,25.042052174380135,27.357938338322512,28.74250662768991,0.03020606963464677,0.03299952355155564,833.3333333333334,24.71000000000011,0.029652000000000133,27.77777777777783,811.1111111111111,844.4444444444445,0.0,45.45454545454545,777.7777777777778,869.4444444444445,5.5,31.25,12,11,11,12,12,1.0,0.9166666666666666,0.9166666666666666,1.0,1
525600-529200,810.8585858585859,22.92144884293929,23.207331749117113,23.88817110606975,0.028268121276250262,0.02862068941965237,808.3333333333334,28.82833333333335,0.03566391752577321,36.111111111111086,788.8888888888889,838.8888888888889,0.0,27.27272727272727,777.7777777777778,847.2222222222222,3.6666666666666665,39.0625,12,11,11,10,12,1.0,0.9166666666666666,0.9166666666666666,0.8333333333333334,1
529200-532800,799.7474747474748,64.29165971117489,61.14897816696693,60.493512218882884,0.08038995025457926,0.0764603579226994,813.8888888888889,24.709999999999944,0.030360409556313923,27.77777777777783,797.2222222222223,830.5555555555557,9.090909090909092,54.54545454545454,616.6666666666667,861.1111111111112,5.5,195.3125,12,11,11,11,12,1.0,0.9166666666666666,0.9166666666666666,0.9166666666666666,1
536400-540000,815.6565656565657,25.76821923095302,25.834826719080954,26.964959734773263,0.03159199633268543,0.03167365752556055,816.6666666666666,32.94666666666676,0.04034285714285726,44.44444444444457,794.4444444444443,847.2222222222222,9.090909090909092,36.36363636363637,780.5555555555555,850.0,2.75,15.625,12,11,11,11,12,1.0,0.9166666666666666,0.9166666666666666,0.9166666666666666,0
543600-547200,807.4074074074074,31.51890477197283,28.00256271341103,29.749005140984227,0.039037175635012224,0.034682073085417334,797.2222222222223,24.71000000000011,0.03099512195121965,50.0,785.5555555555555,842.2222222222222,0.0,44.44444444444444,758.3333333333333,847.2222222222222,4.5,0.0,10,9,9,10,10,1.0,0.9,0.9,1.0,0
547200-550800,797.4747474747475,25.351070345781594,29.76243385773082,31.02059141774575,0.03178918257419098,0.0373208480293268,794.4444444444443,32.946666666666424,0.04147132867132837,34.72222222222217,772.2222222222223,816.6666666666666,9.090909090909092,27.27272727272727,761.1111111111111,838.8888888888889,5.5,0.0,12,11,11,11,12,1.0,0.9166666666666666,0.9166666666666666,0.9166666666666666,0
550800-554400,808.5858585858585,29.51392602493206,30.794520115367963,31.753994812573218,0.03650067053676795,0.03808441588284108,802.7777777777778,32.94666666666676,0.0410408304498271,44.44444444444457,780.5555555555555,836.1111111111111,9.090909090909092,45.45454545454545,772.2222222222223,855.5555555555555,5.5,0.0,12,11,11,12,12,1.0,0.9166666666666666,0.9166666666666666,1.0,0
554400-558000,817.929292929293,24.980351425696334,26.146548057222386,27.46115850319221,0.03054096685574482,0.03196675835338087,819.4444444444445,24.709999999999944,0.03015457627118637,36.111111111111086,802.7777777777778,841.6666666666666,0.0,54.54545454545454,777.7777777777778,850.0,5.5,46.875,12,11,11,11,12,1.0,0.9166666666666666,0.9166666666666666,0.9166666666666666,1
561600-565200,794.4444444444445,69.77195497804998,115.86727090464817,121.51540341040416,0.08782483843390906,0.14584691442543127,791.6666666666667,16.473333333333464,0.020808421052631743,31.25,780.5555555555555,825.5555555555557,33.33333333333333,58.333333333333336,613.8888888888889,916.6666666666666,4.0,171.875,13,12,12,12,13,1.0,0.9230769230769231,0.9230769230769231,0.9230769230769231,1
565200-568800,801.010101010101,129.71521945928896,219.53760329214506,231.3979478907837,0.16193955518877184,0.2740759486244938,827.7777777777777,49.42000000000005,0.05970201342281886,51.38888888888903,786.1111111111111,850.0,54.54545454545454,63.63636363636363,541.6666666666666,988.8888888888889,5.5,289.0625,12,11,11,12,12,1.0,0.9166666666666666,0.9166666666666666,1.0,1
568800-572400,796.9907407407408,46.78883619697561,47.44451541167547,48.311849399170455,0.0587068755070969,0.0595295691485443,806.9444444444445,20.591666666666704,0.025518072289156674,26.388888888888914,782.7777777777777,818.3333333333334,8.333333333333332,33.33333333333333,666.6666666666666,855.5555555555555,4.0,148.4375,13,12,12,12,13,1.0,0.9230769230769231,0.9230769230769231,0.9230769230769231,1
572400-576000,815.1515151515152,78.74756155703143,127.7838162824374,134.40923934536337,0.09660481529301253,0.15676081551377077,808.3333333333334,45.30166666666665,0.05604329896907214,62.500000000000114,777.7777777777778,861.1111111111112,45.45454545454545,72.72727272727273,658.3333333333334,986.1111111111112,5.5,117.1875,12,11,11,10,12,1.0,0.9166666666666666,0.9166666666666666,0.8333333333333334,1
579600-583200,790.1515151515152,39.19253748340787,24.51693795957359,23.968786858834243,0.04960129384285559,0.03102814775324749,791.6666666666666,37.06499999999983,0.046818947368420835,40.27777777777783,766.6666666666667,825.0,9.090909090909092,36.36363636363637,697.2222222222222,830.5555555555557,5.5,93.75,12,11,11,12,12,1.0,0.9166666666666666,0.9166666666666666,1.0,1
583200-586800,748.3796296296296,31.99015906247576,22.690767539631583,21.804791532648675,0.04274589766467532,0.030319862595486684,754.1666666666666,26.76916666666673,0.03549502762430948,33.33333333333337,734.4444444444443,773.8888888888889,0.0,25.0,686.1111111111111,786.1111111111111,6.0,70.3125,13,12,12,12,13,1.0,0.9230769230769231,0.9230769230769231,0.9230769230769231,0
622800-626400,757.8703703703704,47.16772454425937,57.0690309935342,58.18523769412554,0.06223719304557131,0.07530183686379588,768.0555555555555,26.769166666666646,0.034853164556961996,34.02777777777783,750.5555555555555,786.1111111111111,16.666666666666664,58.333333333333336,625.0,808.3333333333334,4.0,156.25,13,12,12,11,13,1.0,0.9230769230769231,0.9230769230769231,0.8461538461538461,1
626400-630000,768.9393939393939,91.18406785837587,157.74256258024565,166.19171007999805,0.1185842064759174,0.2051430370501717,780.5555555555555,37.065,0.04748540925266904,48.6111111111112,755.5555555555555,813.8888888888889,27.27272727272727,45.45454545454545,527.7777777777778,900.0,11.0,0.0,12,10,11,12,12,1.0,0.8333333333333334,0.9166666666666666,1.0,1
630000-633600,742.824074074074,18.29036644456294,18.1379240079349,19.006614714832047,0.024622743234812065,0.02441752312691766,748.6111111111111,16.473333333333294,0.022005194805194753,29.166666666666742,719.4444444444445,757.7777777777777,0.0,16.666666666666664,716.6666666666666,766.6666666666667,4.0,0.0,13,12,12,12,13,1.0,0.9230769230769231,0.9230769230769231,0.9230769230769231,0
633600-637200,772.4537037037036,35.97406655178636,24.187121263532692,23.715603599666633,0.046571161972944884,0.0313120658850648,781.9444444444445,37.065,0.04740106571936056,50.69444444444457,733.3333333333333,803.8888888888889,8.333333333333332,41.66666666666667,708.3333333333334,816.6666666666666,6.0,78.125,13,12,12,12,13,1.0,0.9230769230769231,0.9230769230769231,0.9230769230769231,0
637200-640800,812.121212121212,23.807118685641765,22.274244663032718,22.8105004338167,0.029314735695006654,0.027427241562689546,813.8888888888889,28.828333333333518,0.03542047781569988,29.166666666666742,794.4444444444443,827.7777777777777,0.0,54.54545454545454,772.2222222222223,850.0,3.6666666666666665,23.4375,12,11,11,11,12,1.0,0.9166666666666666,0.9166666666666666,0.9166666666666666,1
644400-648000,723.7179487179486,24.072704322198266,25.30675994206751,26.414350643923523,0.03326254981632356,0.03496771081454856,719.4444444444445,16.473333333333294,0.022897297297297243,13.888888888888914,711.6666666666666,733.8888888888889,7.6923076923076925,38.46153846153847,686.1111111111111,783.3333333333334,3.25,39.0625,14,13,13,13,14,1.0,0.9285714285714286,0.9285714285714286,0.9285714285714286,1
